Lead1,Lead2,Lead3
-0.419759,-0.453354,-0.0271461
-1.67174,-1.80536,-0.10805
-3.18167,-3.43571,-0.205368
-4.55027,-4.91323,-0.293316
-5.85327,-6.31969,-0.376913
-7.05954,-7.6214,-0.453929
-8.1939,-8.84527,-0.525994
-9.24547,-9.97973,-0.592754
-10.2268,-11.0385,-0.655239
-11.1346,-12.0181,-0.713143
-11.9761,-12.9264,-0.766892
-12.7522,-13.7641,-0.816669
-13.4669,-14.5358,-0.862656
-14.1229,-15.2442,-0.905025
-14.7227,-15.8923,-0.944148
-15.269,-16.483,-0.980073
-15.7652,-17.0194,-1.01273
-16.2138,-17.5046,-1.04228
-16.6175,-17.9409,-1.06875
-16.9781,-18.3305,-1.09228
-17.2976,-18.6757,-1.113
-17.5782,-18.9787,-1.13108
-17.822,-19.2418,-1.14676
-18.0308,-19.4673,-1.16029
-18.2065,-19.6571,-1.17178
-18.3507,-19.8128,-1.18112
-18.465,-19.9362,-1.18849
-18.5513,-20.0293,-1.19398
-18.611,-20.0936,-1.19762
-18.6454,-20.1306,-1.19962
-18.6561,-20.1419,-1.19996
-18.6445,-20.129,-1.19877
-18.6117,-20.0933,-1.19631
-18.5593,-20.0363,-1.19248
-18.4888,-19.9598,-1.18737
-18.4016,-19.865,-1.18114
-18.2986,-19.7531,-1.17368
-18.1809,-19.6249,-1.16497
-18.0493,-19.4816,-1.15522
-17.9048,-19.3243,-1.14453
-17.7487,-19.1541,-1.13287
-17.5819,-18.9721,-1.12024
-17.405,-18.7791,-1.10684
-17.2188,-18.5761,-1.09301
-17.0236,-18.3637,-1.0788
-16.8202,-18.1424,-1.06409
-16.6095,-17.9131,-1.04878
-16.392,-17.6765,-1.03298
-16.1684,-17.4332,-1.01673
-15.9393,-17.1842,-1.00018
-15.7055,-16.93,-0.983426
-15.4671,-16.6712,-0.966342
-15.2247,-16.4078,-0.948917
-14.979,-16.1406,-0.931091
-14.7306,-15.8701,-0.912801
-14.4798,-15.5969,-0.894179
-14.2273,-15.3217,-0.875237
-13.9733,-15.0446,-0.856075
-13.7181,-14.7664,-0.836898
-13.4622,-14.4873,-0.817674
-13.2056,-14.2077,-0.798581
-12.9489,-13.9282,-0.779652
-12.6924,-13.6492,-0.760846
-12.4365,-13.3709,-0.742365
-12.1816,-13.0937,-0.724003
-11.9279,-12.8178,-0.705609
-11.6758,-12.5436,-0.687252
-11.4254,-12.2713,-0.669089
-11.1768,-12.001,-0.651196
-10.9301,-11.7329,-0.633546
-10.6858,-11.4673,-0.616102
-10.4443,-11.2045,-0.598644
-10.2057,-10.9447,-0.581161
-9.96954,-10.6876,-0.563823
-9.73587,-10.4333,-0.546801
-9.5048,-10.1821,-0.530281
-9.27629,-9.93389,-0.514164
-9.05054,-9.68875,-0.49827
-8.82791,-9.44698,-0.482509
-8.60855,-9.2088,-0.466985
-8.39235,-8.9742,-0.451865
-8.17933,-8.74334,-0.437315
-7.96964,-8.5165,-0.4234
-7.76343,-8.29365,-0.409947
-7.56059,-8.0746,-0.396883
-7.36111,-7.85959,-0.384346
-7.16526,-7.64891,-0.372475
-6.97313,-7.44249,-0.36113
-6.78451,-7.23988,-0.349979
-6.59938,-7.04077,-0.338881
-6.41777,-6.84535,-0.3279
-6.2395,-6.65364,-0.317176
-6.06449,-6.46552,-0.306723
-5.89252,-6.28074,-0.296489
-5.72368,-6.0993,-0.286575
-5.55826,-5.92168,-0.276958
-5.39624,-5.74799,-0.267643
-5.23768,-5.57798,-0.258606
-5.08248,-5.41145,-0.249731
-4.93039,-5.24825,-0.240969
-4.78149,-5.08844,-0.23237
-4.63592,-4.93222,-0.223987
-4.49363,-4.77951,-0.215771
-4.35459,-4.63018,-0.20761
-4.21876,-4.48428,-0.199596
-4.08615,-4.34195,-0.191923
-3.95674,-4.20307,-0.184533
-3.83041,-4.06757,-0.17732
-3.70719,-3.93533,-0.170243
-3.58699,-3.80619,-0.163245
-3.46967,-3.68004,-0.156267
-3.35517,-3.5569,-0.149422
-3.24333,-3.43671,-0.142684
-3.13415,-3.31942,-0.136003
-3.02778,-3.20498,-0.129497
-2.9241,-3.09332,-0.12311
-2.82306,-2.98444,-0.116726
-2.72476,-2.87836,-0.110382
-2.62891,-2.7749,-0.104177
-2.53527,-2.67396,-0.0982689
-2.44426,-2.57571,-0.0924071
-2.35613,-2.47993,-0.0861362
-2.27041,-2.38635,-0.079614
-2.18669,-2.29496,-0.0732934
-2.10505,-2.20593,-0.0672227
-2.02561,-2.11941,-0.0613462
-1.94833,-2.03544,-0.0557787
-1.87317,-1.95396,-0.0505284
-1.80007,-1.87493,-0.0456368
-1.72897,-1.79822,-0.0410894
-1.65954,-1.72356,-0.0369428
-1.59142,-1.65067,-0.0332403
-1.52506,-1.57985,-0.02976
-1.46111,-1.51159,-0.0264669
-1.39952,-1.44611,-0.0235057
-1.34029,-1.38332,-0.0207649
-1.28363,-1.32324,-0.0181503
-1.2294,-1.26584,-0.0158012
-1.17741,-1.21096,-0.0137426
-1.12743,-1.15845,-0.0119988
-1.07941,-1.1083,-0.010564
-1.03338,-1.06037,-0.00937652
-0.989196,-1.0144,-0.00831704
-0.946737,-0.97029,-0.00738459
-0.906096,-0.928219,-0.00671251
-0.867124,-0.888144,-0.00621135
-0.829472,-0.849812,-0.00600729
-0.793044,-0.813026,-0.00617517
-0.757836,-0.777794,-0.00665866
-0.723842,-0.743947,-0.00731346
-0.691041,-0.711254,-0.00793713
-0.659507,-0.679865,-0.00861772
-0.629201,-0.649866,-0.00944204
-0.600003,-0.621253,-0.0104983
-0.571867,-0.593882,-0.0118218
-0.544696,-0.567536,-0.0132049
-0.518222,-0.542049,-0.0146452
-0.492314,-0.51726,-0.0161566
-0.467181,-0.493307,-0.0177169
-0.443027,-0.470668,-0.0195808
-0.420014,-0.449497,-0.0217089
-0.398208,-0.429587,-0.02395
-0.377482,-0.410793,-0.0262419
-0.357761,-0.393076,-0.0285504
-0.338694,-0.376009,-0.0309411
-0.319909,-0.359076,-0.0332353
-0.301792,-0.342599,-0.0352202
-0.284745,-0.327023,-0.0369758
-0.268623,-0.312132,-0.0385124
-0.252922,-0.297513,-0.0398413
-0.237434,-0.283014,-0.0410793
-0.222544,-0.268884,-0.0421123
-0.208657,-0.255715,-0.043075
-0.19576,-0.243753,-0.0441876
-0.183629,-0.232818,-0.0457128
-0.1723,-0.222962,-0.0476462
-0.161984,-0.214499,-0.0497261
-0.152552,-0.207436,-0.052175
-0.143696,-0.20156,-0.0552682
-0.135545,-0.196894,-0.0589081
-0.128159,-0.193371,-0.0628759
-0.121389,-0.190825,-0.0670566
-0.115464,-0.189136,-0.0713728
-0.110397,-0.18814,-0.0756745
-0.105973,-0.187731,-0.079944
-0.102173,-0.187818,-0.0841281
-0.0987097,-0.188074,-0.0880846
-0.0953205,-0.188367,-0.0918916
-0.0920513,-0.188867,-0.0956259
-0.0889319,-0.189547,-0.0994775
-0.0857031,-0.18997,-0.103229
-0.0822548,-0.18979,-0.106524
-0.0789316,-0.189482,-0.109596
-0.0758433,-0.189301,-0.112575
-0.0726454,-0.188807,-0.115439
-0.069094,-0.187779,-0.118128
-0.0655618,-0.186663,-0.12053
-0.0624929,-0.185776,-0.12269
-0.0599099,-0.185111,-0.124616
-0.0577332,-0.184693,-0.126403
-0.0559613,-0.184515,-0.128122
-0.0546522,-0.184706,-0.129732
-0.0538532,-0.18536,-0.13125
-0.0535683,-0.186665,-0.132789
-0.0539074,-0.18874,-0.134429
-0.0550001,-0.191636,-0.136502
-0.057121,-0.195656,-0.138646
-0.0605204,-0.201045,-0.140682
-0.065118,-0.207874,-0.14293
-0.0708305,-0.216093,-0.145375
-0.0774111,-0.225595,-0.148304
-0.0844797,-0.236336,-0.152037
-0.0920326,-0.248511,-0.156781
-0.100239,-0.262085,-0.16228
-0.108925,-0.276512,-0.168093
-0.11797,-0.291675,-0.174187
-0.127263,-0.307259,-0.180498
-0.136651,-0.32294,-0.186819
-0.146252,-0.338825,-0.193063
-0.156062,-0.354486,-0.198826
-0.16589,-0.369536,-0.20399
-0.175457,-0.38398,-0.208828
-0.184219,-0.397772,-0.213826
-0.191573,-0.410135,-0.218748
-0.196999,-0.420065,-0.223393
-0.199804,-0.426498,-0.226093
-0.19914,-0.428149,-0.226909
-0.194444,-0.424103,-0.227467
-0.185168,-0.413125,-0.226021
-0.170846,-0.394248,-0.221592
-0.151437,-0.366536,-0.213467
-0.12703,-0.329321,-0.200728
-0.0979658,-0.283408,-0.184046
-0.0644417,-0.22957,-0.163734
-0.025559,-0.165874,-0.139184
0.0185386,-0.0920561,-0.109079
0.0666141,-0.0104511,-0.0738064
0.118181,0.0787156,-0.0357511
0.172973,0.175533,0.00586226
0.230889,0.279355,0.0516647
0.291661,0.389486,0.100793
0.354142,0.503692,0.152209
0.416614,0.619182,0.204877
0.477316,0.733864,0.258638
0.534947,0.845411,0.312279
0.589397,0.952865,0.365298
0.640286,1.05576,0.417952
0.686992,1.15336,0.469063
0.729739,1.246,0.518627
0.768901,1.33424,0.567448
0.804547,1.41784,0.61511
0.836772,1.49645,0.661187
0.86583,1.57021,0.70561
0.891456,1.63908,0.748671
0.91289,1.70245,0.790397
0.929756,1.75931,0.830265
0.941887,1.80836,0.865941
0.949756,1.84997,0.898434
0.954233,1.88433,0.928292
0.955066,1.90947,0.952565
0.951823,1.92493,0.971282
0.944457,1.93139,0.985192
0.932855,1.92852,0.993931
0.916875,1.91534,0.996813
0.896556,1.89131,0.993134
0.872668,1.85721,0.983071
0.845284,1.81346,0.965807
0.813802,1.75987,0.942245
0.778449,1.69734,0.914984
0.740084,1.62781,0.884028
0.699446,1.55264,0.849581
0.656817,1.4721,0.811876
0.612384,1.38631,0.770701
0.566233,1.2951,0.725759
0.518778,1.19977,0.677881
0.471156,1.10348,0.629255
0.424532,1.00885,0.581317
0.379309,0.917084,0.534745
0.335602,0.828712,0.490086
0.294005,0.744528,0.447588
0.254953,0.665005,0.407219
0.218362,0.589827,0.368776
0.18385,0.518394,0.332052
0.150853,0.450067,0.296845
0.119204,0.384385,0.262983
0.0888587,0.321287,0.230452
0.0595406,0.260475,0.199097
0.0312285,0.201745,0.168745
0.00400824,0.145241,0.139524
-0.0221474,0.0910623,0.11156
-0.0470716,0.0392751,0.0848124
-0.0707893,-0.0101098,0.0592796
-0.0934656,-0.057179,0.0349416
-0.115023,-0.102003,0.0117589
-0.135604,-0.144671,-0.0102526
-0.155317,-0.185328,-0.0311333
-0.174037,-0.223968,-0.0509487
-0.191708,-0.260509,-0.0697953
-0.208414,-0.294954,-0.0875804
-0.224345,-0.327686,-0.104324
-0.239719,-0.359043,-0.120166
-0.254489,-0.388833,-0.135168
-0.268494,-0.417137,-0.149552
-0.281785,-0.444235,-0.163287
-0.294442,-0.469981,-0.176147
-0.306689,-0.494368,-0.188114
-0.31867,-0.51768,-0.199358
-0.330434,-0.540178,-0.21015
-0.342047,-0.562001,-0.220467
-0.353492,-0.583113,-0.230014
-0.364766,-0.603453,-0.239034
-0.375872,-0.623153,-0.247677
-0.386588,-0.642119,-0.255868
-0.39667,-0.660057,-0.263716
-0.406373,-0.677245,-0.271164
-0.415713,-0.693643,-0.278128
-0.424242,-0.708797,-0.28471
-0.431817,-0.722813,-0.291239
-0.438452,-0.735852,-0.297792
-0.444131,-0.747842,-0.304024
-0.449036,-0.758861,-0.310037
-0.453249,-0.769047,-0.316049
-0.456545,-0.778366,-0.321988
-0.458836,-0.786731,-0.327965
-0.460237,-0.794165,-0.334006
-0.460869,-0.800804,-0.340023
-0.460889,-0.806751,-0.345797
-0.460234,-0.811703,-0.351268
-0.458784,-0.815467,-0.356628
-0.456622,-0.818348,-0.361714
-0.454,-0.820634,-0.366565
-0.450835,-0.822192,-0.371299
-0.446822,-0.822652,-0.375742
-0.442109,-0.822158,-0.379883
-0.437086,-0.821106,-0.38377
-0.432257,-0.819944,-0.38742
-0.427736,-0.818793,-0.390832
-0.423356,-0.81754,-0.394012
-0.419142,-0.816307,-0.39704
-0.41516,-0.81503,-0.399797
-0.411423,-0.813697,-0.402248
-0.407966,-0.812416,-0.404407
-0.404998,-0.811011,-0.405981
-0.402358,-0.809347,-0.406953
-0.39981,-0.807564,-0.407618
-0.39707,-0.80536,-0.408148
-0.39392,-0.802476,-0.408397
-0.390708,-0.799199,-0.408235
-0.387802,-0.795811,-0.407691
-0.385301,-0.792515,-0.40676
-0.383277,-0.789419,-0.40558
-0.381824,-0.786644,-0.404207
-0.380917,-0.784174,-0.402604
-0.380725,-0.781965,-0.400524
-0.381298,-0.779924,-0.397869
-0.382137,-0.777626,-0.394757
-0.382796,-0.774713,-0.391178
-0.383405,-0.771304,-0.387166
-0.384329,-0.767945,-0.38292
-0.385726,-0.764998,-0.37863
-0.387636,-0.762456,-0.374209
-0.390211,-0.760421,-0.369613
-0.393269,-0.758727,-0.364912
-0.396564,-0.757154,-0.360074
-0.400192,-0.755877,-0.355255
-0.404227,-0.755089,-0.350576
-0.408697,-0.754871,-0.34595
-0.413414,-0.75505,-0.341471
-0.418186,-0.755481,-0.337215
-0.423071,-0.756199,-0.333206
-0.428243,-0.757387,-0.329316
-0.4335,-0.758915,-0.325537
-0.438428,-0.760358,-0.322015
-0.442962,-0.761545,-0.318632
-0.447206,-0.762533,-0.31532
-0.451,-0.763269,-0.312181
-0.454146,-0.763615,-0.309291
-0.456652,-0.763508,-0.306623
-0.458352,-0.762887,-0.304293
-0.459253,-0.761777,-0.302464
-0.459361,-0.760007,-0.300728
-0.458677,-0.757589,-0.299037
-0.457362,-0.754795,-0.297581
-0.455496,-0.751694,-0.296325
-0.453153,-0.748323,-0.295302
-0.450245,-0.744658,-0.29456
-0.446855,-0.740692,-0.294082
-0.442956,-0.736477,-0.293794
-0.438482,-0.731952,-0.293643
-0.433533,-0.727048,-0.293854
-0.427963,-0.721612,-0.294216
-0.421714,-0.715589,-0.294397
-0.414854,-0.709049,-0.294643
-0.407368,-0.701901,-0.294966
-0.399315,-0.694297,-0.295373
-0.390777,-0.686519,-0.29603
-0.381721,-0.678579,-0.29704
-0.37214,-0.670394,-0.298355
-0.362204,-0.662177,-0.299969
-0.352039,-0.65406,-0.302126
-0.341577,-0.645882,-0.304688
-0.330873,-0.6378,-0.307354
-0.319882,-0.630105,-0.310564
-0.308566,-0.622632,-0.314318
-0.297224,-0.615211,-0.318206
-0.286099,-0.608106,-0.322258
-0.27517,-0.601286,-0.326441
-0.264258,-0.59448,-0.330597
-0.25328,-0.587639,-0.334691
-0.242193,-0.580693,-0.338815
-0.231056,-0.573822,-0.343154
-0.219985,-0.567058,-0.347476
-0.208955,-0.560265,-0.351662
-0.197897,-0.553403,-0.355788
-0.186764,-0.546282,-0.359723
-0.17536,-0.538687,-0.363421
-0.163393,-0.53017,-0.366866
-0.151018,-0.520748,-0.369946
-0.138747,-0.511069,-0.372607
-0.126822,-0.501296,-0.37485
-0.115169,-0.491244,-0.376688
-0.103833,-0.481186,-0.378071
-0.0928403,-0.471323,-0.379096
-0.0822302,-0.461726,-0.379966
-0.0719986,-0.452426,-0.380823
-0.0619876,-0.443307,-0.381764
-0.0521621,-0.434471,-0.382752
-0.0426492,-0.426019,-0.383772
-0.033615,-0.418068,-0.384833
-0.0249609,-0.410639,-0.385976
-0.0164739,-0.403596,-0.387272
-0.00835397,-0.396886,-0.388628
-0.000909418,-0.390491,-0.389662
0.00611885,-0.384233,-0.390367
0.0130417,-0.377706,-0.390691
0.0199844,-0.370647,-0.39051
0.0269445,-0.36313,-0.389956
0.0337192,-0.355372,-0.388976
0.0404055,-0.347238,-0.387524
0.0475488,-0.338103,-0.385555
0.0553746,-0.32774,-0.383076
0.0633385,-0.316806,-0.380128
0.0709955,-0.306075,-0.376978
0.0782214,-0.295613,-0.3738
0.0851072,-0.285249,-0.370356
0.0916654,-0.275141,-0.366707
0.0975672,-0.26556,-0.362944
0.102825,-0.256391,-0.35898
0.107705,-0.247498,-0.354967
0.112357,-0.238844,-0.350999
0.116778,-0.230312,-0.346857
0.120814,-0.222068,-0.342484
0.124445,-0.214018,-0.337989
0.127677,-0.205974,-0.333241
0.130617,-0.197784,-0.328072
0.13342,-0.189099,-0.32221
0.136116,-0.179763,-0.315493
0.138857,-0.169646,-0.308094
0.141883,-0.158733,-0.300229
0.145055,-0.147381,-0.292065
0.148166,-0.135874,-0.283702
0.151209,-0.124334,-0.275107
0.154178,-0.112721,-0.266417
0.157389,-0.100813,-0.257757
0.16105,-0.088634,-0.249244
0.164824,-0.0765175,-0.240942
0.168157,-0.0648054,-0.232588
0.170704,-0.0536747,-0.22403
0.172671,-0.042923,-0.215179
0.174229,-0.0324534,-0.206068
0.175295,-0.0222466,-0.196863
0.17609,-0.0120748,-0.18736
0.176809,-0.00182503,-0.177664
0.177445,0.00852974,-0.168004
0.17804,0.018957,-0.158207
0.178602,0.0294693,-0.148296
0.179188,0.0401795,-0.138236
0.179828,0.0509841,-0.128075
0.180539,0.0618867,-0.117853
0.181461,0.0730495,-0.107564
0.182563,0.0845019,-0.0971553
0.183737,0.0963578,-0.0863577
0.184999,0.108479,-0.0754021
0.186321,0.120568,-0.0646595
0.187713,0.132548,-0.0540262
0.189235,0.144463,-0.043649
0.190676,0.15613,-0.0336319
0.192028,0.167651,-0.0236253
0.19352,0.179462,-0.0133291
0.19503,0.191445,-0.00290275
0.196467,0.203245,0.00732729
0.197881,0.214838,0.0175266
0.199205,0.226316,0.0278484
0.200296,0.237579,0.0380264
0.201046,0.248454,0.0480289
0.201421,0.258909,0.0578823
0.20153,0.268935,0.0675976
0.201455,0.278509,0.0772061
0.201255,0.287713,0.0866283
0.20093,0.296573,0.095851
0.200489,0.305086,0.104832
0.199924,0.313275,0.113651
0.199125,0.321187,0.122531
0.198193,0.328795,0.131262
0.197236,0.336084,0.139537
0.196231,0.343118,0.147462
0.195076,0.349837,0.155311
0.193619,0.356037,0.162984
0.19176,0.361495,0.170281
0.189505,0.366338,0.177363
0.187028,0.370811,0.184312
0.184405,0.374811,0.190969
0.181547,0.378193,0.197259
0.178425,0.380927,0.20316
0.174984,0.383113,0.208774
0.171147,0.384817,0.21426
0.166922,0.385899,0.219475
0.162418,0.386397,0.224396
0.157649,0.386286,0.229024
0.15257,0.385603,0.23344
0.147386,0.384657,0.237622
0.142329,0.383673,0.241484
0.137491,0.382563,0.245188
0.133011,0.381412,0.248589
0.128854,0.380407,0.251659
0.125005,0.379618,0.25473
0.121443,0.379294,0.257978
0.118122,0.379349,0.261361
0.115024,0.37961,0.264772
0.111993,0.379897,0.268091
0.108901,0.379732,0.271027
0.105615,0.379042,0.273595
0.102505,0.378241,0.275805
0.100178,0.377474,0.277285
0.0983359,0.37643,0.278022
0.0965117,0.374721,0.278067
0.0946124,0.372174,0.277335
0.092491,0.368884,0.276108
0.0898824,0.364827,0.274665
0.0868121,0.360004,0.272915
0.083418,0.354551,0.270856
0.0798302,0.348607,0.268427
0.0764521,0.342612,0.265729
0.0733619,0.336778,0.263058
0.0703788,0.331116,0.260462
0.0675468,0.32568,0.257873
0.0651606,0.320498,0.255108
0.0634706,0.315729,0.252168
0.0624036,0.311569,0.2492
0.0616029,0.307863,0.246268
0.0609333,0.304329,0.243394
0.0604945,0.301178,0.24072
0.0602733,0.298498,0.238282
0.0601169,0.295867,0.235766
0.0597072,0.292889,0.233165
0.0587658,0.289494,0.230783
0.0571717,0.285732,0.228682
0.0549591,0.281544,0.226711
0.0522809,0.27672,0.224546
0.0494889,0.271385,0.221913
0.0469471,0.265797,0.218759
0.0446437,0.260016,0.215242
0.0426405,0.254311,0.211594
0.0409888,0.248814,0.207845
0.0395024,0.24344,0.203944
0.0381196,0.238065,0.199902
0.0368627,0.232702,0.195751
0.0357121,0.22748,0.191624
0.034596,0.222417,0.187649
0.0334802,0.217467,0.183818
0.0323526,0.212578,0.180115
0.0313488,0.207904,0.176478
0.0306231,0.203639,0.172867
0.030447,0.20021,0.169595
0.0307479,0.197638,0.166763
0.0310491,0.195375,0.164226
0.0312166,0.193269,0.161956
0.0312181,0.191234,0.159922
0.0310703,0.189189,0.158104
0.0308088,0.187178,0.156381
0.0306881,0.185348,0.15463
0.0309271,0.184007,0.153054
0.0314641,0.183228,0.151725
0.0320333,0.182496,0.150346
0.0322912,0.181404,0.148959
0.0320358,0.179887,0.147706
0.0309234,0.177585,0.146488
0.0289331,0.174452,0.145288
0.0263667,0.17091,0.144228
0.0235223,0.167174,0.143196
0.0206202,0.163261,0.142086
0.0173463,0.158918,0.140921
0.0135995,0.153938,0.139582
0.00964639,0.148539,0.138102
0.00567748,0.143053,0.136568
0.00189874,0.137695,0.134998
-0.00156317,0.132694,0.133502
-0.00458285,0.128092,0.131979
-0.00727011,0.123755,0.130378
-0.00971522,0.119709,0.128782
-0.0118095,0.115897,0.127126
-0.0136384,0.112302,0.125428
-0.015229,0.109198,0.123874
-0.0161126,0.106825,0.122407
-0.0161029,0.105229,0.120899
-0.0155274,0.104373,0.119532
-0.0145809,0.104091,0.11838
-0.01336,0.104154,0.117331
-0.0119025,0.104426,0.116197
-0.0103848,0.104721,0.114935
-0.00876539,0.105074,0.113626
-0.00665103,0.105747,0.112164
-0.00402025,0.106577,0.110363
-0.00110069,0.107329,0.108243
0.0021672,0.108123,0.105856
0.00593944,0.109049,0.103096
0.0101282,0.110134,0.100019
0.0144163,0.111403,0.0969759
0.0185925,0.112809,0.0941216
0.0226454,0.114233,0.0914536
0.0266312,0.1156,0.0889013
0.0304288,0.116868,0.0864905
0.0337847,0.118079,0.0844072
0.0366277,0.119277,0.0827046
0.0391054,0.120513,0.0814586
0.041551,0.122064,0.0806703
0.0441641,0.124033,0.0800731
0.0467313,0.126196,0.0796494
0.0489449,0.128455,0.0796543
0.0507766,0.130792,0.0801272
0.0521803,0.132985,0.0808686
0.0531934,0.134894,0.0817612
0.0539248,0.136565,0.0828154
0.0542099,0.137951,0.0839048
0.0540619,0.139075,0.0851224
0.0537941,0.140146,0.0867092
0.0534473,0.141332,0.0884417
0.05302,0.142718,0.0902073
0.0524641,0.144162,0.0920971
0.0516808,0.145377,0.0940309
0.0506311,0.14646,0.0962375
0.0490982,0.147507,0.0988882
0.0470259,0.148286,0.101744
0.0446624,0.148828,0.104621
0.042242,0.149348,0.107462
0.0396836,0.149767,0.110279
0.037032,0.149932,0.112989
0.0344695,0.149937,0.115505
0.0320271,0.149828,0.117872
0.0295802,0.149475,0.120012
0.0269915,0.148806,0.121844
0.0243392,0.147711,0.123317
0.0215834,0.146188,0.124533
0.0189206,0.144646,0.125668
0.0166824,0.143471,0.126786
0.0147191,0.142585,0.12797
0.0129028,0.141769,0.129115
0.0112069,0.140904,0.130024
0.00951242,0.139915,0.130725
0.00778119,0.139099,0.131571
0.0060107,0.138498,0.132683
0.00413176,0.137695,0.133755
0.00209282,0.136703,0.134774
0.000139662,0.135881,0.135835
-0.00165709,0.135356,0.137055
-0.00355857,0.134903,0.138476
-0.00569007,0.134489,0.140179
-0.00822925,0.133938,0.142174
-0.0111623,0.132971,0.144134
-0.0141749,0.131737,0.145901
-0.0171588,0.130368,0.147451
-0.0201922,0.128701,0.148707
-0.0233157,0.126611,0.149711
-0.026527,0.124183,0.150478
-0.029483,0.121743,0.15095
-0.0319415,0.119563,0.15116
-0.034297,0.117376,0.151284
-0.0367937,0.115041,0.151462
-0.0394668,0.112468,0.151624
-0.0423765,0.109501,0.151603
-0.0453114,0.106385,0.151358
-0.0480862,0.103318,0.151075
-0.0506673,0.100388,0.150824
-0.0529629,0.0976842,0.150497
-0.0549474,0.0951165,0.149925
-0.0565435,0.0927665,0.149133
-0.0574852,0.0908474,0.148176
-0.0578505,0.0894369,0.147114
-0.0578872,0.0884195,0.146027
-0.057722,0.0875494,0.144894
-0.0573803,0.0867609,0.143754
-0.0566926,0.0860934,0.142428
-0.05552,0.0855116,0.140763
-0.0538859,0.0852996,0.139003
-0.0519134,0.0855872,0.137346
-0.0498856,0.0858969,0.135744
-0.0480487,0.0860466,0.13409
-0.0462531,0.0862045,0.132376
-0.044465,0.0862182,0.13059
-0.0427126,0.0859016,0.128533
-0.0407619,0.0853181,0.126029
-0.0384333,0.0847728,0.123141
-0.0356582,0.0844373,0.119981
-0.0321591,0.0845231,0.116598
-0.0279298,0.0852071,0.113047
-0.0234062,0.0862002,0.109488
-0.0185844,0.087519,0.105884
-0.0134743,0.0889548,0.102058
-0.00825937,0.0904702,0.0983197
-0.00265768,0.0925565,0.0948208
0.00336141,0.0950692,0.091357
0.00923808,0.0974314,0.0879085
0.0147336,0.0993899,0.0844281
0.0200113,0.100981,0.0807777
0.0250517,0.102282,0.0770612
0.0297025,0.103287,0.0734308
0.0340351,0.104115,0.0699099
0.0382174,0.104932,0.0665232
0.0424139,0.105935,0.0633453
0.0467594,0.107312,0.0603796
0.0511665,0.10891,0.0575503
0.0554326,0.110433,0.054786
0.0595279,0.111767,0.0520696
0.0636182,0.113262,0.0494788
0.0678529,0.115116,0.0469996
0.0723656,0.117297,0.0446267
0.0772815,0.119784,0.0422032
0.0825175,0.122513,0.0396505
0.087701,0.125335,0.03727
0.0925218,0.128062,0.03516
0.097143,0.130784,0.033156
0.101738,0.133503,0.0311875
0.106184,0.135987,0.0291568
0.110309,0.137987,0.0270306
0.114176,0.139573,0.0247913
0.117822,0.140962,0.0225037
0.121163,0.142107,0.0202522
0.124346,0.14305,0.0179909
0.127411,0.143868,0.0157191
0.130195,0.14432,0.0133516
0.132629,0.144292,0.0109309
0.134747,0.143934,0.00855382
0.136692,0.143462,0.00618383
0.138558,0.142862,0.00379063
0.140328,0.141968,0.00120861
0.141892,0.140835,-0.00141494
0.14298,0.13945,-0.00380431
0.143632,0.137721,-0.00622061
0.144028,0.135685,-0.00879389
0.144289,0.1335,-0.0113
0.144476,0.13112,-0.0138773
0.1444,0.128205,-0.0167086
0.143849,0.124653,-0.0196479
0.14294,0.120854,-0.0225049
0.142021,0.117142,-0.0253096
0.141155,0.113367,-0.0282426
0.14024,0.109355,-0.031282
0.139059,0.105032,-0.0343568
0.137421,0.10027,-0.0374466
0.135303,0.0951137,-0.0403935
0.132649,0.0895938,-0.0431781
0.12944,0.0835647,-0.045978
0.125719,0.0770926,-0.0487607
0.12177,0.0704134,-0.0514656
0.117963,0.0638213,-0.0541621
0.114657,0.0578164,-0.0567688
0.111677,0.052385,-0.059128
0.108687,0.0471746,-0.0614241
0.105745,0.0419396,-0.0638688
0.102643,0.0364639,-0.0662793
0.0990811,0.0305661,-0.0686087
0.0949299,0.0239967,-0.0710412
0.0902429,0.0167816,-0.0736044
0.0849971,0.00892422,-0.0762457
0.0790982,0.000262627,-0.0789884
0.072739,-0.00897212,-0.0818208
0.0658673,-0.0187064,-0.0847599
0.0584479,-0.0290363,-0.0877691
0.050676,-0.0397919,-0.0908473
0.0425078,-0.0508922,-0.0939571
0.0340498,-0.0622751,-0.0969546
0.0255629,-0.0737664,-0.0999027
0.0170652,-0.0853248,-0.102964
0.00862721,-0.0968898,-0.106127
0.000415416,-0.108217,-0.109201
-0.00791514,-0.119141,-0.11177
-0.0163946,-0.129718,-0.11384
-0.0245767,-0.140013,-0.115889
-0.0322492,-0.149924,-0.118254
-0.0393736,-0.159606,-0.12104
-0.0460881,-0.169357,-0.124073
-0.0526234,-0.179329,-0.127433
-0.0590228,-0.189389,-0.131042
-0.0650866,-0.199368,-0.134869
-0.070741,-0.209418,-0.13918
-0.0761041,-0.219603,-0.143873
-0.0814078,-0.22981,-0.148646
-0.0868166,-0.240011,-0.153324
-0.0923314,-0.25026,-0.158006
-0.0978394,-0.260462,-0.162815
-0.103194,-0.270473,-0.167479
-0.108419,-0.280292,-0.172003
-0.113523,-0.289846,-0.176448
-0.118359,-0.299019,-0.180726
-0.122945,-0.307785,-0.184883
-0.12733,-0.316154,-0.18892
-0.131443,-0.324159,-0.19284
-0.135179,-0.331655,-0.196561
-0.138398,-0.338447,-0.200094
-0.14116,-0.344729,-0.203616
-0.143842,-0.350754,-0.207007
-0.146555,-0.35653,-0.21
-0.149172,-0.362009,-0.212737
-0.151736,-0.367181,-0.215299
-0.154221,-0.372056,-0.217597
-0.156715,-0.376699,-0.219656
-0.159223,-0.381161,-0.221545
-0.161753,-0.385462,-0.22329
-0.164261,-0.389383,-0.224727
-0.166478,-0.392704,-0.225745
-0.168541,-0.395516,-0.226402
-0.170674,-0.398032,-0.226758
-0.172934,-0.400469,-0.226918
-0.175195,-0.402758,-0.226927
-0.177381,-0.404781,-0.226808
-0.179488,-0.406596,-0.22655
-0.181445,-0.408221,-0.226177
-0.183305,-0.409685,-0.225813
-0.184991,-0.410897,-0.22533
-0.186478,-0.411704,-0.224526
-0.187798,-0.41205,-0.223502
-0.18897,-0.412041,-0.222301
-0.189937,-0.411648,-0.220867
-0.190429,-0.410504,-0.219215
-0.190466,-0.408585,-0.217275
-0.190424,-0.40637,-0.215114
-0.190167,-0.403729,-0.212769
-0.189333,-0.400235,-0.210115
-0.188185,-0.396182,-0.207198
-0.187104,-0.391983,-0.204032
-0.186048,-0.387463,-0.20045
-0.184729,-0.38215,-0.196445
-0.183323,-0.376442,-0.192188
-0.182173,-0.37076,-0.187677
-0.181218,-0.364856,-0.182783
-0.180493,-0.359103,-0.177822
-0.180126,-0.353737,-0.172909
-0.180116,-0.348619,-0.167828
-0.180189,-0.343776,-0.162792
-0.180205,-0.339261,-0.158172
-0.180248,-0.335083,-0.153901
-0.180162,-0.330907,-0.149761
-0.179775,-0.326538,-0.145819
-0.178985,-0.322099,-0.14219
-0.177877,-0.317686,-0.138895
-0.176418,-0.312971,-0.135695
-0.174644,-0.30779,-0.132301
-0.172635,-0.302148,-0.128696
-0.170375,-0.296186,-0.124954
-0.168122,-0.290126,-0.12108
-0.165885,-0.283908,-0.117005
-0.163337,-0.277275,-0.112842
-0.160327,-0.27002,-0.108659
-0.156979,-0.262255,-0.104267
-0.153411,-0.254133,-0.099656
-0.149786,-0.245859,-0.0949537
-0.14632,-0.237596,-0.0902346
-0.143021,-0.229431,-0.0854549
-0.139854,-0.221353,-0.0805882
-0.136971,-0.213346,-0.0754418
-0.134371,-0.205262,-0.0698562
-0.131672,-0.196928,-0.0641886
-0.128963,-0.188549,-0.0586091
-0.12653,-0.180295,-0.0529451
-0.124317,-0.172046,-0.0470425
-0.122254,-0.163774,-0.0409521
-0.120235,-0.155658,-0.0348685
-0.117932,-0.147443,-0.0288949
-0.115063,-0.138814,-0.0231264
-0.111719,-0.129928,-0.0176064
-0.108259,-0.121055,-0.012219
-0.10513,-0.112509,-0.0068389
-0.102214,-0.104134,-0.00150445
-0.0989937,-0.0955769,0.00369274
-0.0953983,-0.0870963,0.00849553
-0.0917346,-0.0790437,0.0128745
-0.0879639,-0.0711719,0.0169815
-0.0838898,-0.063212,0.0208309
-0.0795887,-0.0552723,0.0244201
-0.0752326,-0.0475699,0.0277237
-0.0708899,-0.0403014,0.030675
-0.0665313,-0.0333121,0.033297
-0.0623033,-0.0265142,0.035764
-0.0581492,-0.0199616,0.0381039
-0.0539827,-0.0135028,0.0403883
-0.0498227,-0.00708198,0.0426451
-0.0454594,-0.000632066,0.0448013
-0.0409302,0.00588838,0.04687
-0.0362836,0.0124749,0.0488283
-0.0315251,0.0191377,0.0506926
-0.0266336,0.0258574,0.052495
-0.0216225,0.03263,0.0543105
-0.0164779,0.039553,0.056128
-0.0111937,0.0466022,0.0579087
-0.00583762,0.0537694,0.0597057
-0.000299817,0.0611546,0.0614997
0.00542256,0.0687581,0.0633553
0.0112452,0.0764644,0.0652478
0.0170484,0.084107,0.0671415
0.0228669,0.0917314,0.0690193
0.0287132,0.0993299,0.0708039
0.0344719,0.106888,0.0726292
0.0402421,0.114494,0.0744852
0.0461633,0.122201,0.0762812
0.0519993,0.129799,0.0779846
0.0575346,0.13699,0.0795706
0.062734,0.143783,0.0811339
0.0674713,0.150122,0.0827258
0.0717218,0.15594,0.0843236
0.0755031,0.161232,0.0858017
0.0789123,0.16601,0.0871016
0.0821682,0.170472,0.0883276
0.0853632,0.174783,0.0895601
0.0885909,0.179092,0.0907619
0.0920793,0.183574,0.0918208
0.0956687,0.188018,0.0927171
0.0992688,0.19248,0.0935583
0.103209,0.197315,0.0943973
0.107718,0.202697,0.095233
0.112764,0.208506,0.0959657
0.117895,0.214078,0.0964634
0.122732,0.219353,0.0969597
0.127341,0.224655,0.097636
0.131783,0.229715,0.09822
0.135695,0.234045,0.0986243
0.138711,0.237741,0.099314
0.140714,0.24106,0.100585
0.142002,0.243689,0.101808
0.142797,0.245262,0.102561
0.142993,0.245912,0.103047
0.142814,0.245983,0.10332
0.142468,0.24545,0.103116
0.142101,0.244358,0.102184
0.141727,0.242923,0.101014
0.14126,0.241121,0.0997765
0.140873,0.238972,0.098082
0.140963,0.237081,0.0960613
0.141515,0.235624,0.094027
0.142132,0.234215,0.0920472
0.142617,0.232708,0.090045
0.142857,0.23086,0.0878841
0.143099,0.22888,0.085609
0.143658,0.227182,0.0833826
0.144126,0.225556,0.0812874
0.144248,0.224123,0.0796886
0.144298,0.223009,0.078568
0.144186,0.221845,0.0775194
0.143863,0.220395,0.076347
0.143435,0.218606,0.0750051
0.143041,0.216761,0.0735489
0.142722,0.2149,0.072014
0.142365,0.212927,0.0704177
0.142255,0.211051,0.0686528
0.14265,0.209529,0.0666838
0.143333,0.208198,0.0646203
0.143965,0.206809,0.062625
0.144374,0.205338,0.060707
0.144715,0.20385,0.058948
0.145337,0.202745,0.0573651
0.146291,0.20216,0.0558654
0.147388,0.201825,0.0544591
0.148511,0.201684,0.0531953
0.149666,0.20184,0.052177
0.15074,0.202016,0.051381
0.151505,0.201951,0.0507164
0.151977,0.201817,0.0501842
0.152427,0.20185,0.0497526
0.153051,0.202097,0.049374
0.153736,0.202553,0.049077
0.154553,0.203335,0.0489249
0.155371,0.204264,0.0489324
0.155976,0.205091,0.0490994
0.15648,0.205966,0.0494922
0.156836,0.206842,0.049991
0.156997,0.207465,0.0503948
0.156956,0.207893,0.0508227
0.156718,0.208196,0.0513232
0.156428,0.208379,0.0517759
0.156312,0.208688,0.0522007
0.15627,0.209108,0.052694
0.155892,0.209372,0.0533528
0.155051,0.20941,0.054164
0.15409,0.209401,0.0550834
0.153384,0.209593,0.0560656
0.152825,0.20996,0.057065
0.152285,0.210447,0.0580603
0.152078,0.211307,0.0590494
0.152478,0.212833,0.0600491
0.153208,0.214732,0.061078
0.15406,0.216691,0.0621114
0.155132,0.218826,0.0631562
0.156004,0.220801,0.0642307
0.156204,0.222152,0.0653401
0.155645,0.22283,0.0665924
0.154427,0.222765,0.0678215
0.152664,0.221879,0.0687029
0.150417,0.220309,0.0693594
0.147818,0.218285,0.0699558
0.145079,0.216124,0.070533
0.142443,0.214084,0.0711106
0.139776,0.21195,0.0716376
0.136686,0.20939,0.0721327
0.13323,0.20644,0.072615
0.129434,0.203113,0.0731253
0.125282,0.199623,0.0737727
0.121348,0.196465,0.0744982
0.118131,0.193799,0.0750938
0.115453,0.191459,0.0754974
0.113129,0.189365,0.0757321
0.111069,0.187439,0.0759288
0.109105,0.185637,0.0761477
0.10714,0.183795,0.0762801
0.105069,0.181774,0.0763689
0.102802,0.179687,0.0765376
0.100371,0.177504,0.0767921
0.0979311,0.175292,0.0770453
0.095471,0.173142,0.0773529
0.0930085,0.17108,0.0777384
0.0906734,0.169199,0.0782035
0.0887081,0.16772,0.0788094
0.0873869,0.166901,0.0793977
0.0865992,0.16667,0.079951
0.0860067,0.166666,0.0805565
0.0855318,0.166854,0.0812184
0.0851677,0.167266,0.0820074
0.084708,0.167614,0.0828836
0.0842257,0.167965,0.083792
0.083736,0.168328,0.084674
0.0831463,0.168635,0.0855328
0.0825568,0.16907,0.0866174
0.0818546,0.169458,0.0878342
0.0807867,0.169501,0.0889758
0.0791688,0.168964,0.0900671
0.0769755,0.167631,0.0909468
0.0742034,0.165443,0.0914405
0.0711377,0.16277,0.091735
0.067993,0.16002,0.0921243
0.0645772,0.1571,0.0926078
0.0609439,0.153842,0.0930258
0.0571435,0.150142,0.0931984
0.0531569,0.145927,0.0930423
0.0492739,0.141566,0.0925596
0.0458869,0.137591,0.0918356
0.0429303,0.133892,0.0909805
0.0401945,0.130137,0.089904
0.0378031,0.12653,0.08866
0.035852,0.12326,0.0873589
0.0341167,0.120073,0.0859757
0.0324058,0.116896,0.0845795
0.0307732,0.113905,0.0832459
0.0291761,0.110875,0.0818953
0.0276009,0.107762,0.0804678
0.0262418,0.104813,0.0789086
0.0252011,0.102143,0.0772353
0.024314,0.0995663,0.0755301
0.0233986,0.0968202,0.0737357
0.0223839,0.0939325,0.0717943
0.0214378,0.0909942,0.0697427
0.0205235,0.0879324,0.0676496
0.0197005,0.0850176,0.0655429
0.0191982,0.0824826,0.0634339
0.0187974,0.0800261,0.0612859
0.0183323,0.077466,0.0591322
0.0177335,0.0745514,0.0568682
0.0169096,0.0713287,0.0544407
0.0160353,0.0680579,0.0518921
0.0151614,0.0646519,0.0492976
0.0140483,0.0608772,0.0466468
0.0127316,0.0566809,0.0437137
0.0113853,0.0522084,0.0404969
0.010093,0.0475748,0.0371392
0.00874599,0.0427665,0.0337289
0.00724875,0.0376622,0.0301439
0.00573899,0.0323935,0.0263011
0.00425927,0.0269836,0.0223927
0.00274268,0.0214614,0.0184379
0.00127332,0.016136,0.0144699
-2.9605e-05,0.0110015,0.010631
-0.00110774,0.00602366,0.00678494
-0.00207353,0.00114831,0.00293649
-0.00303281,-0.00366843,-0.000912511
-0.00375094,-0.00817203,-0.00473861
-0.00427489,-0.0123255,-0.00836363
-0.00486292,-0.0164768,-0.0118742
-0.00567763,-0.0209028,-0.0154415
-0.00677144,-0.0256108,-0.0190268
-0.00787251,-0.0301891,-0.0225326
-0.00877853,-0.0343876,-0.0258768
-0.00956699,-0.03852,-0.0291671
-0.0104311,-0.0427731,-0.0325143
-0.0113855,-0.0471493,-0.0359044
-0.0123434,-0.0516363,-0.0394572
-0.0134039,-0.0563232,-0.0431603
-0.0146931,-0.0613084,-0.046919
-0.016156,-0.0664167,-0.0505614
-0.0175265,-0.0715627,-0.0542846
-0.0187952,-0.0768539,-0.0583508
-0.0201472,-0.082391,-0.0625451
-0.0217363,-0.0882395,-0.0667747
-0.0235868,-0.0943381,-0.0710858
-0.0254134,-0.100492,-0.0754997
-0.0268414,-0.106322,-0.0799415
-0.0278061,-0.111698,-0.0843405
-0.0286413,-0.116935,-0.0887514
-0.0295944,-0.122246,-0.0931059
-0.030664,-0.127518,-0.097268
-0.0317885,-0.132533,-0.101155
-0.0330301,-0.137356,-0.104748
-0.0345073,-0.142261,-0.108112
-0.0361244,-0.147087,-0.111294
-0.0379312,-0.151853,-0.11427
-0.0401481,-0.156998,-0.117083
-0.0426481,-0.162327,-0.119812
-0.0452242,-0.16755,-0.122413
-0.0479893,-0.172718,-0.124779
-0.0507617,-0.177509,-0.12679
-0.0532105,-0.181646,-0.128549
-0.0553119,-0.18519,-0.130122
-0.0572181,-0.188262,-0.131309
-0.0591857,-0.19097,-0.132006
-0.0611353,-0.193292,-0.132354
-0.0631928,-0.195694,-0.13271
-0.0657771,-0.198877,-0.133342
-0.069188,-0.203366,-0.134358
-0.0736129,-0.209427,-0.135942
-0.0790597,-0.216935,-0.138036
-0.0855148,-0.225941,-0.140682
-0.0931578,-0.236988,-0.144382
-0.101943,-0.25051,-0.149261
-0.111457,-0.266135,-0.155298
-0.121352,-0.283057,-0.162184
-0.13106,-0.300096,-0.169367
-0.140286,-0.316799,-0.176767
-0.149101,-0.333162,-0.184277
-0.157408,-0.348997,-0.191779
-0.16548,-0.364506,-0.199192
-0.173296,-0.379214,-0.206017
-0.180601,-0.392791,-0.21168
-0.187732,-0.405838,-0.217181
-0.194623,-0.418653,-0.223199
-0.200781,-0.43047,-0.228913
-0.205593,-0.440094,-0.233811
-0.208366,-0.446512,-0.237548
-0.208544,-0.449028,-0.239843
-0.205779,-0.446775,-0.240352
-0.199361,-0.438278,-0.238307
-0.188319,-0.422313,-0.233534
-0.172181,-0.397545,-0.223428
-0.150833,-0.363178,-0.20856
-0.124833,-0.32007,-0.191571
-0.0943123,-0.268756,-0.1711
-0.0577988,-0.206848,-0.145931
-0.0150768,-0.134137,-0.116221
0.0324787,-0.0531068,-0.0829147
0.0842779,0.0360952,-0.0456639
0.139794,0.133247,-0.00408691
0.198202,0.237158,0.041212
0.259254,0.347081,0.0905903
0.322195,0.460894,0.142563
0.38523,0.576064,0.194775
0.446571,0.690531,0.247634
0.505071,0.802228,0.300696
0.56062,0.910523,0.353234
0.612736,1.01467,0.405062
0.660941,1.11413,0.456087
0.705616,1.20935,0.50641
0.747125,1.30064,0.555979
0.785558,1.38787,0.604632
0.820901,1.47084,0.652146
0.853076,1.54949,0.698457
0.881861,1.62373,0.743753
0.906925,1.69307,0.787895
0.927666,1.75631,0.830235
0.943382,1.81178,0.869861
0.954528,1.8598,0.906521
0.961914,1.90049,0.939513
0.965098,1.93164,0.967371
0.963755,1.95286,0.989627
0.958068,1.96508,1.00572
0.948022,1.96794,1.01733
0.933495,1.9604,1.02446
0.91447,1.94192,1.02511
0.891002,1.91265,1.01931
0.862997,1.87298,1.00754
0.830691,1.82332,0.99028
0.794863,1.76503,0.967962
0.756836,1.70063,0.941691
0.717338,1.63135,0.912058
0.676194,1.55695,0.878546
0.633244,1.47703,0.841248
0.588509,1.39164,0.800669
0.542756,1.30301,0.757875
0.497153,1.21421,0.714773
0.452747,1.1275,0.672629
0.410158,1.04412,0.631948
0.369528,0.964447,0.592999
0.330738,0.888585,0.556015
0.293683,0.816204,0.520675
0.258337,0.747034,0.486691
0.224335,0.680617,0.454075
0.191224,0.616215,0.422822
0.159027,0.553579,0.392521
0.127954,0.492648,0.362716
0.0979332,0.433236,0.333422
0.0687428,0.375344,0.30484
0.0404333,0.319235,0.277136
0.0131249,0.265127,0.25035
-0.013064,0.213034,0.224479
-0.0380767,0.163048,0.199611
-0.0619079,0.115309,0.175729
-0.0844538,0.0699619,0.152961
-0.105638,0.0271242,0.131379
-0.125626,-0.0134415,0.110814
-0.144691,-0.0520841,0.0912837
-0.162841,-0.0887732,0.0728165
-0.180037,-0.123554,0.0553555
-0.196442,-0.156581,0.0388892
-0.212151,-0.188072,0.0232114
-0.227249,-0.218306,0.00810143
-0.241841,-0.24736,-0.0064246
-0.255728,-0.275156,-0.0203415
-0.269035,-0.301772,-0.0335828
-0.281995,-0.327437,-0.0461737
-0.294535,-0.352098,-0.0582675
-0.306665,-0.375881,-0.069929
-0.31857,-0.399064,-0.081172
-0.330376,-0.421606,-0.0919013
-0.342022,-0.443518,-0.102138
-0.353598,-0.465037,-0.112056
-0.365129,-0.486257,-0.12186
-0.376443,-0.507018,-0.131392
-0.38746,-0.527267,-0.140492
-0.398052,-0.546946,-0.149425
-0.408186,-0.566052,-0.158381
-0.417809,-0.58467,-0.167453
-0.426655,-0.602555,-0.17646
-0.434759,-0.619471,-0.185117
-0.44221,-0.63529,-0.193396
-0.44855,-0.649727,-0.201458
-0.453572,-0.662899,-0.209708
-0.457367,-0.674932,-0.218119
-0.460186,-0.686009,-0.226416
-0.462445,-0.696586,-0.234697
-0.463939,-0.706204,-0.242792
-0.464333,-0.714405,-0.250602
-0.463858,-0.721726,-0.258366
-0.462574,-0.728362,-0.266248
-0.460577,-0.734556,-0.274434
-0.458399,-0.740918,-0.282912
-0.456041,-0.7471,-0.291434
-0.453403,-0.752644,-0.299797
-0.450637,-0.75766,-0.307645
-0.447942,-0.762643,-0.315208
-0.445491,-0.767785,-0.322687
-0.443017,-0.772672,-0.329959
-0.440464,-0.777402,-0.337256
-0.437868,-0.781928,-0.344391
-0.434859,-0.785636,-0.351081
-0.431346,-0.78847,-0.357387
-0.427575,-0.790537,-0.363166
-0.423781,-0.791821,-0.368205
-0.420297,-0.792629,-0.372483
-0.417435,-0.793312,-0.375994
-0.41525,-0.794194,-0.378996
-0.413635,-0.795141,-0.381526
-0.41254,-0.795994,-0.383459
-0.411981,-0.796781,-0.38481
-0.411932,-0.797404,-0.38547
-0.412479,-0.798045,-0.385495
-0.413864,-0.79894,-0.385062
-0.416184,-0.800116,-0.384053
-0.419333,-0.801505,-0.382282
-0.423252,-0.803107,-0.379939
-0.427669,-0.804951,-0.377313
-0.432316,-0.806948,-0.374594
-0.437255,-0.809079,-0.371778
-0.442548,-0.811579,-0.368964
-0.448249,-0.814633,-0.366273
-0.454441,-0.818146,-0.363607
-0.461007,-0.821994,-0.360937
-0.46759,-0.82584,-0.358262
-0.474054,-0.829437,-0.355464
-0.480646,-0.832974,-0.352391
-0.487258,-0.836322,-0.34904
-0.493814,-0.839358,-0.345408
-0.500196,-0.84204,-0.341561
-0.506327,-0.844422,-0.337727
-0.512349,-0.846525,-0.333826
-0.518214,-0.848315,-0.329757
-0.523959,-0.850016,-0.32573
-0.529243,-0.851431,-0.321909
-0.533687,-0.852191,-0.318346
-0.537215,-0.852155,-0.314847
-0.539759,-0.851299,-0.311357
-0.541573,-0.849852,-0.308042
-0.542968,-0.848083,-0.304914
-0.543999,-0.846077,-0.301944
-0.544701,-0.843894,-0.299073
-0.545039,-0.841584,-0.296419
-0.545189,-0.839207,-0.293829
-0.545147,-0.836668,-0.291237
-0.544484,-0.833686,-0.289091
-0.542844,-0.830007,-0.287137
-0.540186,-0.825757,-0.285423
-0.536909,-0.821423,-0.284267
-0.533253,-0.817093,-0.283574
-0.528939,-0.812557,-0.283345
-0.523829,-0.807715,-0.283524
-0.517837,-0.802563,-0.284317
-0.510741,-0.797119,-0.285835
-0.502756,-0.791283,-0.287889
-0.494125,-0.785092,-0.290572
-0.484795,-0.778574,-0.293453
-0.47488,-0.771599,-0.29619
-0.464431,-0.764223,-0.299225
-0.453453,-0.756636,-0.302709
-0.441897,-0.748867,-0.30656
-0.429862,-0.741067,-0.31077
-0.417553,-0.73331,-0.315355
-0.40478,-0.7253,-0.320226
-0.391296,-0.71688,-0.325252
-0.377186,-0.708122,-0.330717
-0.362779,-0.699163,-0.336439
-0.348255,-0.690307,-0.342102
-0.333638,-0.681695,-0.348008
-0.31895,-0.673185,-0.354064
-0.304345,-0.664695,-0.360056
-0.28987,-0.656096,-0.365983
-0.275152,-0.647179,-0.371835
-0.260088,-0.637925,-0.377583
-0.244823,-0.628385,-0.383167
-0.229487,-0.618819,-0.38895
-0.214483,-0.609649,-0.395068
-0.199768,-0.600691,-0.40089
-0.185168,-0.591644,-0.406368
-0.170678,-0.582692,-0.411879
-0.156337,-0.574113,-0.417546
-0.142452,-0.56598,-0.423268
-0.128938,-0.558169,-0.428974
-0.115582,-0.550554,-0.434692
-0.102403,-0.542958,-0.440256
-0.0892709,-0.535267,-0.445678
-0.0761454,-0.527473,-0.451119
-0.0633216,-0.519887,-0.456335
-0.0508228,-0.512499,-0.461283
-0.0384969,-0.504965,-0.465952
-0.026595,-0.497448,-0.470255
-0.0152725,-0.490034,-0.474165
-0.00445425,-0.482653,-0.477627
0.00603783,-0.475341,-0.480799
0.0162379,-0.468117,-0.483751
0.0260784,-0.460991,-0.486474
0.0357297,-0.453878,-0.489144
0.0451788,-0.446771,-0.491618
0.0542531,-0.439837,-0.493765
0.0629579,-0.433131,-0.495802
0.0715393,-0.426374,-0.497595
0.0803824,-0.419135,-0.499055
0.0896286,-0.410817,-0.499882
0.0990027,-0.401356,-0.499832
0.108099,-0.391539,-0.499144
0.116963,-0.381673,-0.498118
0.125586,-0.371886,-0.496966
0.133584,-0.362554,-0.495663
0.140905,-0.353718,-0.494128
0.147595,-0.345379,-0.492384
0.153604,-0.337591,-0.490573
0.159038,-0.330263,-0.488685
0.163886,-0.323529,-0.486738
0.16789,-0.317353,-0.484571
0.171236,-0.311255,-0.481841
0.174139,-0.305079,-0.47858
0.176637,-0.298958,-0.474888
0.178717,-0.293105,-0.470931
0.180329,-0.287397,-0.466735
0.181731,-0.281311,-0.462073
0.183143,-0.27471,-0.45695
0.184629,-0.267612,-0.451392
0.186202,-0.25999,-0.44535
0.187777,-0.252084,-0.438994
0.189283,-0.243929,-0.432322
0.19079,-0.235116,-0.42501
0.192411,-0.225376,-0.4169
0.194102,-0.214971,-0.408139
0.195637,-0.20427,-0.398966
0.196891,-0.193426,-0.38944
0.197905,-0.182653,-0.379721
0.198652,-0.172163,-0.369984
0.199068,-0.162044,-0.360293
0.199177,-0.152271,-0.350674
0.199079,-0.14272,-0.341035
0.199066,-0.133164,-0.331487
0.199114,-0.123628,-0.322024
0.198959,-0.114246,-0.312328
0.198351,-0.105048,-0.302504
0.197211,-0.0961918,-0.292717
0.195841,-0.0875446,-0.282845
0.194576,-0.0786783,-0.272766
0.193351,-0.0696088,-0.262449
0.192084,-0.0603947,-0.251986
0.190935,-0.0509684,-0.241439
0.190036,-0.0412597,-0.230844
0.189555,-0.0311378,-0.220255
0.189334,-0.0205666,-0.209314
0.189365,-0.00941927,-0.197965
0.189564,0.00216344,-0.186569
0.189568,0.0138103,-0.175137
0.189289,0.0252228,-0.16363
0.188783,0.0363585,-0.152008
0.188164,0.04738,-0.140267
0.187274,0.0582454,-0.128469
0.185976,0.0687568,-0.116723
0.184415,0.079017,-0.105023
0.182569,0.0890005,-0.0932086
0.180525,0.098633,-0.0813661
0.178416,0.10817,-0.0697243
0.176222,0.11757,-0.0582017
0.173972,0.126729,-0.0468083
0.171649,0.135702,-0.035616
0.169356,0.144583,-0.0245252
0.167267,0.153491,-0.0135262
0.165298,0.162471,-0.00267092
0.163391,0.171429,0.0080124
0.161679,0.180372,0.0187445
0.160051,0.189339,0.0295495
0.158337,0.198161,0.0400578
0.156711,0.206902,0.0503713
0.155077,0.215483,0.0606054
0.153209,0.223782,0.0707014
0.151271,0.231835,0.0806317
0.149462,0.239756,0.0903187
0.147858,0.247688,0.0998215
0.146334,0.2556,0.109197
0.14466,0.263404,0.11867
0.142854,0.271126,0.128391
0.14124,0.279038,0.137952
0.139667,0.286873,0.147218
0.137601,0.294129,0.156518
0.134993,0.300868,0.165853
0.132225,0.307128,0.17486
0.129311,0.312829,0.183492
0.12639,0.318092,0.191667
0.123973,0.322902,0.198898
0.122133,0.327228,0.205043
0.120664,0.331081,0.210318
0.119219,0.334368,0.214947
0.117449,0.336825,0.219067
0.115316,0.338289,0.222667
0.112905,0.338946,0.225791
0.110355,0.339111,0.228549
0.107751,0.339045,0.231005
0.105145,0.338581,0.233087
0.102528,0.337541,0.234661
0.0997559,0.336119,0.236001
0.0968948,0.334419,0.237241
0.0940535,0.332504,0.23824
0.0913544,0.330546,0.239001
0.0888455,0.328629,0.239491
0.0865384,0.326733,0.239804
0.0843167,0.324807,0.240175
0.0822181,0.323188,0.240739
0.0804447,0.32196,0.241342
0.0788522,0.320855,0.241815
0.0773782,0.319745,0.242156
0.0760507,0.318487,0.242304
0.0750965,0.317344,0.242198
0.074561,0.316383,0.241786
0.0739723,0.315168,0.241156
0.0733609,0.313593,0.240219
0.0730095,0.311732,0.238728
0.0729765,0.309857,0.236832
0.0732229,0.307984,0.234687
0.0734645,0.305726,0.232237
0.0734606,0.302972,0.229456
0.0729719,0.299567,0.22652
0.0719811,0.295705,0.223689
0.0707065,0.291678,0.220937
0.0692266,0.287463,0.218148
0.0675687,0.282998,0.21531
0.0656518,0.278238,0.212446
0.0634333,0.273155,0.209648
0.0610541,0.267925,0.206932
0.0585398,0.262572,0.204097
0.0559481,0.257071,0.201182
0.053427,0.251699,0.19837
0.0511155,0.246431,0.195507
0.0494448,0.241658,0.192512
0.0484589,0.237615,0.189422
0.047824,0.23388,0.186159
0.0472925,0.230144,0.182855
0.046752,0.226469,0.179769
0.0462171,0.223035,0.176963
0.0454005,0.219522,0.174318
0.0442933,0.215708,0.171624
0.0429677,0.211637,0.168911
0.0412175,0.207228,0.166215
0.0389498,0.202303,0.163495
0.0361914,0.19682,0.160751
0.0330883,0.190869,0.157893
0.0294575,0.184175,0.154819
0.0252811,0.176811,0.151573
0.0209173,0.169179,0.148237
0.0164022,0.161261,0.144803
0.0118236,0.153197,0.141327
0.00748461,0.145396,0.137849
0.00325554,0.137736,0.134449
-0.000945553,0.130172,0.131134
-0.00492166,0.122904,0.127858
-0.00854798,0.116124,0.124787
-0.0116808,0.109905,0.121794
-0.0143862,0.104226,0.11882
-0.016653,0.0991421,0.115914
-0.0183512,0.0945439,0.113024
-0.0196932,0.09048,0.110297
-0.0207121,0.0869808,0.107797
-0.021212,0.0841392,0.105494
-0.0214641,0.0817101,0.103221
-0.0218304,0.0793974,0.101192
-0.0218156,0.0777092,0.099476
-0.0205604,0.0772883,0.0977355
-0.01802,0.0780957,0.0959327
-0.014755,0.0795377,0.0940504
-0.0112737,0.0810914,0.0920519
-0.0078468,0.0824381,0.0899426
-0.00448839,0.0834153,0.0876321
-0.000877418,0.0842606,0.0849369
0.00314742,0.0851466,0.0818166
0.00709562,0.0858319,0.0785444
0.0106999,0.0861473,0.075231
0.0141103,0.0861577,0.0717888
0.0175016,0.0861051,0.06825
0.0212454,0.0862602,0.0646296
0.0252159,0.086495,0.0609083
0.029235,0.0867252,0.057118
0.0333817,0.0871023,0.0533567
0.0373699,0.0875304,0.0497154
0.041151,0.0880711,0.0465061
0.0448733,0.0889694,0.0438369
0.0483356,0.0900011,0.0414806
0.0514157,0.0909982,0.0394089
0.0543669,0.092279,0.0377253
0.0572403,0.0938469,0.0364073
0.0598166,0.0953078,0.0353041
0.0621642,0.0967602,0.0344247
0.0643875,0.0984049,0.0338544
0.0664714,0.10007,0.0334518
0.0682079,0.101694,0.033422
0.0694487,0.103271,0.0339886
0.0702086,0.104817,0.0348641
0.070375,0.106265,0.0360562
0.0701369,0.107629,0.0375814
0.0695455,0.108831,0.0393284
0.0685088,0.109758,0.0412793
0.0671348,0.110446,0.0432974
0.0654854,0.110895,0.0453628
0.0636255,0.111154,0.0474175
0.0616835,0.111278,0.0494054
0.0596398,0.111368,0.051627
0.0569681,0.111383,0.054363
0.0537156,0.111472,0.0576803
0.0503619,0.111839,0.0614304
0.0470905,0.112381,0.0652355
0.0438735,0.112835,0.0689128
0.0406846,0.113299,0.0725947
0.0376194,0.113915,0.076266
0.0345003,0.114264,0.079707
0.0314609,0.114338,0.082857
0.0287072,0.114407,0.0858222
0.0260916,0.114543,0.0886033
0.0233751,0.114786,0.0914594
0.0207805,0.115467,0.0947032
0.0186845,0.116978,0.0981992
0.0168593,0.118915,0.101869
0.0149432,0.120767,0.105705
0.0127835,0.122442,0.109681
0.0103838,0.123949,0.113618
0.00787471,0.125304,0.117316
0.00526577,0.126464,0.121087
0.00252576,0.127525,0.124954
-0.000274219,0.128464,0.12861
-0.00300044,0.129337,0.132228
-0.00578779,0.130161,0.135896
-0.0087631,0.13073,0.139463
-0.0117781,0.131216,0.142934
-0.0148471,0.13174,0.146405
-0.01797,0.132198,0.149913
-0.020973,0.132816,0.153437
-0.023726,0.133765,0.157097
-0.0262609,0.134944,0.160965
-0.0285812,0.136368,0.164821
-0.030717,0.138164,0.168791
-0.0328173,0.1402,0.172915
-0.034855,0.142315,0.176955
-0.0365507,0.144675,0.180979
-0.037923,0.147278,0.184964
-0.0392703,0.149917,0.188893
-0.0406929,0.152538,0.192885
-0.0421846,0.15516,0.196933
-0.0435992,0.157758,0.20097
-0.0448928,0.16031,0.204813
-0.0461582,0.162685,0.208439
-0.047389,0.164841,0.211846
-0.0484454,0.16691,0.214927
-0.0490023,0.169084,0.21767
-0.0489487,0.171446,0.21994
-0.0486218,0.173631,0.221695
-0.048212,0.175465,0.223073
-0.0474907,0.177234,0.224137
-0.0459963,0.179503,0.22485
-0.0437366,0.182363,0.225342
-0.0411071,0.185312,0.225598
-0.0384739,0.187831,0.22543
-0.0360875,0.189681,0.224875
-0.0336284,0.191052,0.22386
-0.0308966,0.192109,0.222217
-0.0281186,0.192825,0.22012
-0.0254543,0.192982,0.217645
-0.0228061,0.192765,0.214821
-0.0200827,0.19224,0.211541
-0.0173718,0.191208,0.207776
-0.0146356,0.189911,0.203773
-0.0117051,0.188547,0.199533
-0.00869546,0.186824,0.194893
-0.00572171,0.184738,0.189902
-0.00268493,0.182566,0.184698
0.000441063,0.180365,0.179299
0.00374767,0.178204,0.173769
0.00716684,0.175918,0.168085
0.0107281,0.173596,0.162231
0.0149267,0.171762,0.156207
0.0197801,0.17052,0.150135
0.024983,0.169655,0.144055
0.0304684,0.16916,0.138021
0.036073,0.168926,0.132189
0.041536,0.168665,0.12648
0.0469798,0.168356,0.120797
0.0525797,0.168191,0.115153
0.0581864,0.168125,0.109536
0.0639336,0.168217,0.103915
0.0698729,0.168623,0.0983174
0.0756586,0.169129,0.0929223
0.0810862,0.169376,0.0876274
0.0860973,0.169184,0.0823552
0.0907244,0.168651,0.0771745
0.0950117,0.167791,0.0720068
0.0989614,0.166603,0.0668518
0.102542,0.165042,0.0616917
0.105806,0.163163,0.056595
0.108686,0.160884,0.0514294
0.11093,0.157915,0.0461031
0.112626,0.154394,0.040777
0.113951,0.150539,0.0355821
0.11494,0.146402,0.0304773
0.115746,0.142027,0.0253529
0.116451,0.137477,0.0201589
0.117181,0.132911,0.014881
0.118122,0.128472,0.00960086
0.119299,0.124224,0.0043097
0.120684,0.120188,-0.000909733
0.121734,0.116226,-0.00587243
0.121794,0.111979,-0.0102214
0.121184,0.107301,-0.0141512
0.120451,0.102296,-0.0182744
0.119664,0.0969889,-0.0227296
0.119094,0.0915558,-0.0275544
0.118717,0.086068,-0.0326084
0.118213,0.0804485,-0.0376644
0.117557,0.0747041,-0.0427098
0.116759,0.0686037,-0.0479323
0.115695,0.0620167,-0.0534429
0.114154,0.0549653,-0.0590186
0.112107,0.0474996,-0.0644155
0.109559,0.0397034,-0.0696367
0.106516,0.0316486,-0.0746054
0.103079,0.0234898,-0.0793186
0.0995489,0.015329,-0.0839302
0.0959949,0.00737064,-0.0883065
0.0921021,-0.000482248,-0.0922583
0.0877615,-0.00845784,-0.095786
0.0832587,-0.0162438,-0.0990575
0.0787354,-0.0237705,-0.102169
0.0741648,-0.0312394,-0.105109
0.0698154,-0.0384219,-0.107994
0.0659932,-0.0449083,-0.110699
0.0629383,-0.0503935,-0.113103
0.0603949,-0.0550104,-0.115132
0.0579875,-0.0591664,-0.116811
0.0555304,-0.0631871,-0.11835
0.0527489,-0.067307,-0.119683
0.0495049,-0.0716742,-0.120894
0.0458831,-0.0763412,-0.122039
0.0419438,-0.0812269,-0.123015
0.0375767,-0.0863921,-0.123871
0.0329125,-0.0918863,-0.124706
0.0280479,-0.0976765,-0.125567
0.0228666,-0.103731,-0.126438
0.0173467,-0.10997,-0.127197
0.0115615,-0.116317,-0.127805
0.00551331,-0.122801,-0.128319
-0.000621443,-0.129314,-0.128741
-0.00656996,-0.135529,-0.129131
-0.0122631,-0.14142,-0.129409
-0.0177963,-0.147165,-0.129562
-0.0232798,-0.152826,-0.12972
-0.0285834,-0.158313,-0.129927
-0.0336715,-0.16353,-0.130033
-0.0386248,-0.168487,-0.129932
-0.0434255,-0.17323,-0.129831
-0.0480171,-0.177758,-0.12975
-0.0523869,-0.182066,-0.129603
-0.0565965,-0.186162,-0.129479
-0.0606173,-0.190132,-0.129414
-0.0644826,-0.194016,-0.129437
-0.0681505,-0.197763,-0.129572
-0.071515,-0.201393,-0.129796
-0.0746905,-0.204894,-0.130096
-0.077765,-0.20837,-0.130502
-0.0806138,-0.211841,-0.131044
-0.0831538,-0.215107,-0.131677
-0.0853736,-0.217912,-0.132239
-0.0871695,-0.220141,-0.132776
-0.0888189,-0.222237,-0.133315
-0.0905156,-0.224366,-0.133705
-0.0921278,-0.226357,-0.134054
-0.0937925,-0.228454,-0.134486
-0.095264,-0.230539,-0.135014
-0.0964052,-0.232338,-0.135607
-0.0975284,-0.234203,-0.136302
-0.0988139,-0.23652,-0.137206
-0.100438,-0.239351,-0.138329
-0.102472,-0.242591,-0.139537
-0.104835,-0.246147,-0.140771
-0.107372,-0.249815,-0.141923
-0.109741,-0.253174,-0.142909
-0.111764,-0.256072,-0.1438
-0.113177,-0.258359,-0.144626
-0.114243,-0.26036,-0.145499
-0.115583,-0.262614,-0.146402
-0.117038,-0.265003,-0.147353
-0.118646,-0.267618,-0.14845
-0.120524,-0.270507,-0.149577
-0.122527,-0.273477,-0.150587
-0.124571,-0.276289,-0.151377
-0.126658,-0.278906,-0.151916
-0.128649,-0.281358,-0.152286
-0.130581,-0.283407,-0.152456
-0.132396,-0.284996,-0.152336
-0.133785,-0.286113,-0.151979
-0.134723,-0.286663,-0.151587
-0.135358,-0.286708,-0.151062
-0.136081,-0.286661,-0.150252
-0.13702,-0.286642,-0.149305
-0.138086,-0.286549,-0.14818
-0.139353,-0.286474,-0.146859
-0.140551,-0.286161,-0.145361
-0.141484,-0.285483,-0.143759
-0.142313,-0.284627,-0.142195
-0.142963,-0.28364,-0.14067
-0.143451,-0.282605,-0.13918
-0.144007,-0.28159,-0.137633
-0.144491,-0.280479,-0.13605
-0.144768,-0.279172,-0.134511
-0.144663,-0.2775,-0.133004
-0.144265,-0.27577,-0.131665
-0.143765,-0.27429,-0.130655
-0.143098,-0.272858,-0.129814
-0.14244,-0.271344,-0.128871
-0.141726,-0.269805,-0.127963
-0.14106,-0.26836,-0.127128
-0.140639,-0.266961,-0.126169
-0.140183,-0.265535,-0.125191
-0.139728,-0.264013,-0.124087
-0.1395,-0.262431,-0.122613
-0.139341,-0.260666,-0.120882
-0.138985,-0.258607,-0.119132
-0.138264,-0.256331,-0.117511
-0.137161,-0.253812,-0.116114
-0.135759,-0.251052,-0.114846
-0.134166,-0.248061,-0.113438
-0.132387,-0.24469,-0.111876
-0.130396,-0.240945,-0.110211
-0.128221,-0.236881,-0.108401
-0.125842,-0.232363,-0.106337
-0.123167,-0.227365,-0.104037
-0.120156,-0.221943,-0.101628
-0.117001,-0.216267,-0.0991304
-0.113907,-0.210508,-0.0965167
-0.11084,-0.204593,-0.0937027
-0.107622,-0.198378,-0.0907445
-0.104273,-0.192026,-0.0877436
-0.100911,-0.185623,-0.0846746
-0.0976202,-0.179102,-0.0814856
-0.0944144,-0.172599,-0.0781723
-0.0912251,-0.16607,-0.0747866
-0.0880014,-0.159445,-0.0713639
-0.0847023,-0.152716,-0.0678575
-0.0813161,-0.145765,-0.0642124
-0.0778585,-0.138623,-0.0604778
-0.074311,-0.131294,-0.0566605
-0.0707765,-0.123912,-0.0528351
-0.0673452,-0.116613,-0.0490362
-0.0635737,-0.108959,-0.0451771
-0.0592796,-0.100764,-0.0412154
-0.0547995,-0.0923371,-0.0371632
-0.0503236,-0.083874,-0.0331826
-0.0458366,-0.0753294,-0.0291517
-0.0414446,-0.0667825,-0.0250224
-0.0372873,-0.0584889,-0.0208745
-0.0333286,-0.0504427,-0.0167329
-0.0296082,-0.0426673,-0.0127297
-0.0261962,-0.0353359,-0.00878641
-0.0230512,-0.0283075,-0.00484019
-0.0197868,-0.0212116,-0.000963624
-0.0161399,-0.013757,0.00292042
-0.0122977,-0.006046,0.00680569
-0.00850367,0.00154383,0.0105723
-0.00491958,0.00870076,0.0141808
-0.00163057,0.0155074,0.0177846
0.00134381,0.0221788,0.0215293
0.00425955,0.028867,0.0253083
0.00723036,0.0356211,0.0289878
0.0101092,0.0420614,0.0325138
0.012778,0.0480766,0.0359443
0.015233,0.0539234,0.0393423
0.0177245,0.0597709,0.0426379
0.0203212,0.0656559,0.0458117
0.022987,0.0715621,0.0489474
0.0257483,0.0774381,0.052018
0.0287363,0.0835678,0.0550619
0.0324089,0.0906217,0.0583134
0.0367743,0.098421,0.0617578
0.0413118,0.106285,0.0651162
0.0455713,0.113868,0.0683491
0.0493241,0.120862,0.0715514
0.0527566,0.127365,0.074637
0.0560309,0.133608,0.0775442
0.0589256,0.139349,0.080287
0.061266,0.144248,0.0827907
0.062822,0.148206,0.0851319
0.0634582,0.151218,0.0874302
0.0634959,0.153538,0.0896925
0.0634255,0.155695,0.0918991
0.063407,0.1579,0.0941339
0.0633839,0.160016,0.0964223
0.0633499,0.16201,0.0986256
0.0632456,0.163996,0.100693
0.0632288,0.16626,0.102851
0.0634214,0.168849,0.10519
0.0640246,0.17179,0.107531
0.0651468,0.174965,0.109672
0.0665018,0.178112,0.111528
0.0680408,0.181221,0.113091
0.0700718,0.184485,0.114323
0.072717,0.188087,0.115304
0.0756357,0.191786,0.116061
0.0785813,0.195203,0.116457
0.0814217,0.198071,0.116448
0.0840128,0.200498,0.116219
0.0863935,0.202709,0.115977
0.0886336,0.204723,0.115709
0.0907791,0.206484,0.115345
0.0930603,0.20835,0.114915
0.0957474,0.210813,0.114609
0.0985924,0.213609,0.114553
0.101329,0.216369,0.114673
0.10394,0.219121,0.114855
0.106316,0.221812,0.115049
0.108697,0.224522,0.115366
0.111245,0.227607,0.115978
0.113802,0.231142,0.11699
0.116537,0.235083,0.118244
0.11931,0.239162,0.119568
0.121821,0.243142,0.121076
0.124043,0.246875,0.122659
0.126044,0.250217,0.124052
0.127949,0.253283,0.125168
0.129707,0.255906,0.12593
0.131373,0.258022,0.126385
0.132956,0.259789,0.126666
0.134473,0.261413,0.126864
0.135999,0.26293,0.126943
0.137326,0.264092,0.126852
0.138337,0.264904,0.126619
0.139289,0.265661,0.126378
0.140387,0.266589,0.126226
0.141512,0.267719,0.126193
0.142682,0.269052,0.126271
0.143854,0.270309,0.126274
0.144837,0.271102,0.126031
0.145704,0.27156,0.125646
0.146566,0.271881,0.125096
0.147409,0.271996,0.124251
0.148214,0.271792,0.123259
0.148895,0.27124,0.122193
0.149278,0.270273,0.120977
0.149248,0.268802,0.119596
0.148801,0.266953,0.118138
0.148137,0.26488,0.116685
0.14743,0.262577,0.115225
0.146557,0.260097,0.113748
0.145474,0.257468,0.112231
0.144304,0.254751,0.110664
0.143051,0.251949,0.109091
0.14171,0.249084,0.107567
0.140407,0.24653,0.106302
0.139195,0.244446,0.105463
0.137989,0.242611,0.104824
0.136912,0.240918,0.104194
0.13605,0.239404,0.103529
0.135311,0.238046,0.102847
0.134515,0.236648,0.102268
0.133485,0.235063,0.101752
0.132304,0.23334,0.101147
0.131136,0.231482,0.100417
0.130222,0.229679,0.0995693
0.129808,0.228299,0.0986325
0.129705,0.227223,0.0976605
0.129367,0.225836,0.0966212
0.128586,0.22405,0.0955321
0.127845,0.22228,0.0943865
0.127263,0.220556,0.0932489
0.126416,0.218697,0.0922884
0.125015,0.216425,0.0914263
0.123152,0.213673,0.0904514
0.121133,0.210639,0.0893429
0.11907,0.20748,0.0881889
0.117006,0.204229,0.0869581
0.114685,0.20062,0.0856741
0.112003,0.196724,0.0845372
0.109494,0.193058,0.0833823
0.10739,0.189535,0.0819212
0.105469,0.185868,0.0802675
0.103776,0.182308,0.0784306
0.102306,0.178825,0.0763502
0.100827,0.175157,0.0741205
0.0995683,0.171493,0.0717205
0.0987786,0.168068,0.0691155
0.0983041,0.164764,0.0662908
0.09824,0.161612,0.063218
0.0986355,0.158645,0.0599249
0.0989615,0.155766,0.0567434
0.0992082,0.153177,0.0538566
0.0998548,0.151073,0.0510709
0.10077,0.149217,0.0484012
0.101649,0.147518,0.0458693
0.102773,0.146307,0.0434727
0.104335,0.145585,0.0412195
0.106105,0.145173,0.039055
0.108002,0.144908,0.0368908
0.10989,0.14458,0.0347063
0.111667,0.144027,0.032387
0.11309,0.142995,0.0299368
0.114071,0.141624,0.0275808
0.114683,0.1401,0.0253651
0.114719,0.138009,0.0231236
0.114329,0.135337,0.0207613
0.11385,0.132518,0.0182296
0.113351,0.129535,0.0156787
0.112878,0.126401,0.0131453
0.112418,0.123115,0.0104085
0.111824,0.119495,0.00747006
0.111017,0.115716,0.00452181
0.110292,0.112138,0.00164651
0.109791,0.108732,-0.00131851
0.109368,0.105326,-0.00432105
0.109033,0.101981,-0.00721286
0.108586,0.0986821,-0.010019
0.107981,0.0953667,-0.01271
0.107263,0.092075,-0.015226
0.106424,0.0889467,-0.0174686
0.10534,0.0858815,-0.0194311
0.10402,0.0827639,-0.0212448
0.102813,0.0798098,-0.0229627
0.101655,0.0769767,-0.0246401
0.100282,0.0739721,-0.0262151
0.0986959,0.0708456,-0.02762
0.0967039,0.0677019,-0.0287682
0.0946065,0.0647983,-0.0296603
0.0932144,0.0625998,-0.0304611
0.0925941,0.0609949,-0.0314129
0.0922858,0.0595171,-0.0325857
0.0919305,0.0579728,-0.0338631
0.091371,0.0561152,-0.0352157
0.0903995,0.0535827,-0.0367542
0.0889014,0.0502813,-0.0385622
0.0868764,0.0462607,-0.040555
0.0843383,0.0417127,-0.0425509
0.0814274,0.0370131,-0.0444022
0.0783564,0.0323639,-0.0460054
0.0750783,0.0275582,-0.0474766
0.0713286,0.0221924,-0.0490733
0.0670258,0.0160534,-0.0508133
0.0622014,0.00926646,-0.0527077
0.0569922,0.00209456,-0.0547059
0.0516676,-0.00515697,-0.05665
0.046428,-0.0122369,-0.058507
0.0414277,-0.0190753,-0.0603615
0.0366316,-0.0258375,-0.0623609
0.0319995,-0.0324338,-0.0643001
0.027654,-0.0386427,-0.0661274
0.0235561,-0.044574,-0.0679549
0.0194419,-0.0503315,-0.0695507
0.0154774,-0.0555941,-0.0708619
0.0122195,-0.0599886,-0.0720654
0.00963662,-0.0637493,-0.0732519
0.007277,-0.0672489,-0.0743843
0.00498973,-0.0706865,-0.0755854
0.00279312,-0.0741557,-0.0770263
0.000530588,-0.0778166,-0.0785471
-0.00182482,-0.0819206,-0.0802459
-0.0042181,-0.0865664,-0.0824495
-0.00687149,-0.0917885,-0.0849515
-0.00990675,-0.0974888,-0.0875616
-0.013144,-0.103459,-0.0902363
-0.016534,-0.10964,-0.0929809
-0.0202242,-0.116129,-0.0958086
-0.0241389,-0.122869,-0.0986296
-0.0281935,-0.129788,-0.101555
-0.0322948,-0.136796,-0.104543
-0.0362748,-0.143604,-0.10736
-0.0403435,-0.150311,-0.109968
-0.0446246,-0.157096,-0.112461
-0.048793,-0.163606,-0.1148
-0.0526103,-0.169425,-0.116845
-0.0561262,-0.174603,-0.118633
-0.059502,-0.179502,-0.12022
-0.0631431,-0.184576,-0.121568
-0.0671764,-0.189965,-0.122873
-0.0714136,-0.195537,-0.12451
-0.075938,-0.201448,-0.126104
-0.0809544,-0.207981,-0.127524
-0.0868153,-0.215438,-0.129051
-0.0934771,-0.223819,-0.130746
-0.100697,-0.233033,-0.132728
-0.108635,-0.243241,-0.135013
-0.117231,-0.254618,-0.137824
-0.126517,-0.267393,-0.141301
-0.136481,-0.281747,-0.145693
-0.147078,-0.29799,-0.151556
-0.158311,-0.31617,-0.158685
-0.169809,-0.33561,-0.166544
-0.181317,-0.3558,-0.175117
-0.192866,-0.376458,-0.184099
-0.204321,-0.396932,-0.193132
-0.215333,-0.417007,-0.202147
-0.225863,-0.436303,-0.210827
-0.236015,-0.454339,-0.218701
-0.245826,-0.471472,-0.226126
-0.254904,-0.48765,-0.232581
-0.262701,-0.502103,-0.238282
-0.268811,-0.514225,-0.244272
-0.272932,-0.523679,-0.249709
-0.274611,-0.529423,-0.2537
-0.273375,-0.530309,-0.255812
-0.268787,-0.525189,-0.255262
-0.259908,-0.512695,-0.251707
-0.245967,-0.491521,-0.24436
-0.226977,-0.461004,-0.233087
-0.202878,-0.421318,-0.216669
-0.17367,-0.372767,-0.194872
-0.139863,-0.315595,-0.170937
-0.101564,-0.249719,-0.143858
-0.0585366,-0.174904,-0.112246
-0.0107977,-0.0909596,-0.0763267
0.0409493,0.00167497,-0.0355849
0.0955507,0.10187,0.00972649
0.152319,0.208246,0.0591417
0.210713,0.319279,0.1116
0.270028,0.433959,0.167002
0.329144,0.550349,0.225182
0.387057,0.666195,0.283567
0.442978,0.780126,0.341251
0.496018,0.891217,0.399003
0.545494,0.998263,0.456287
0.591088,1.10018,0.512403
0.633098,1.19674,0.566669
0.671858,1.28793,0.618891
0.707538,1.37449,0.669561
0.739812,1.45623,0.718779
0.768459,1.53278,0.766167
0.793617,1.60461,0.812358
0.815357,1.67154,0.857311
0.832956,1.73173,0.899648
0.84616,1.78424,0.938767
0.85533,1.82979,0.974935
0.860636,1.86802,1.00755
0.862362,1.8975,1.03521
0.860005,1.91738,1.05732
0.853149,1.92733,1.07415
0.842298,1.92733,1.08351
0.82817,1.91805,1.08625
0.810631,1.89891,1.08443
0.788953,1.86834,1.07562
0.762942,1.82623,1.05961
0.733031,1.7738,1.03723
0.700037,1.71312,1.00951
0.665083,1.64648,0.977891
0.629008,1.5751,0.942794
0.591832,1.49913,0.904155
0.552802,1.417,0.86108
0.511873,1.32889,0.813872
0.470335,1.23864,0.765184
0.429206,1.14923,0.717002
0.388589,1.06126,0.669774
0.348742,0.97528,0.6238
0.310211,0.8925,0.579663
0.27317,0.813558,0.537788
0.237706,0.738403,0.498146
0.203925,0.667067,0.460703
0.171698,0.599498,0.42537
0.140838,0.535203,0.391824
0.111289,0.473792,0.359926
0.0831021,0.415113,0.329489
0.0563145,0.358977,0.300271
0.0303187,0.304747,0.272164
0.00500368,0.252343,0.245144
-0.0190541,0.202114,0.219128
-0.0421362,0.153589,0.19381
-0.0644615,0.10639,0.169059
-0.0857355,0.0607455,0.144834
-0.106023,0.0167227,0.12099
-0.125461,-0.0257321,0.0979384
-0.14417,-0.066707,0.0758281
-0.16224,-0.106251,0.0544694
-0.179454,-0.14418,0.0338921
-0.196057,-0.180786,0.0140094
-0.212388,-0.216328,-0.00510379
-0.228157,-0.250513,-0.0234756
-0.243239,-0.283455,-0.0412446
-0.25753,-0.315183,-0.0584347
-0.270996,-0.34553,-0.0753132
-0.283796,-0.374502,-0.0916229
-0.295962,-0.402111,-0.106992
-0.307646,-0.428551,-0.121667
-0.318829,-0.453796,-0.135686
-0.329334,-0.477905,-0.149168
-0.339251,-0.501197,-0.162335
-0.348749,-0.523768,-0.175283
-0.357917,-0.545692,-0.188067
-0.366824,-0.567034,-0.200504
-0.375328,-0.587673,-0.212788
-0.383116,-0.60742,-0.224976
-0.390362,-0.626318,-0.236633
-0.397378,-0.6446,-0.247879
-0.403708,-0.661869,-0.258834
-0.409045,-0.677871,-0.269448
-0.413343,-0.692634,-0.2798
-0.41653,-0.706027,-0.289954
-0.418843,-0.718283,-0.299911
-0.420272,-0.729441,-0.309563
-0.420755,-0.739503,-0.319165
-0.420627,-0.748798,-0.328925
-0.420093,-0.757613,-0.338411
-0.419117,-0.766038,-0.347703
-0.41778,-0.774016,-0.356939
-0.416326,-0.781564,-0.365871
-0.414797,-0.788525,-0.374384
-0.412931,-0.794754,-0.382443
-0.410751,-0.800316,-0.390126
-0.408219,-0.805172,-0.39745
-0.405383,-0.809518,-0.404589
-0.402214,-0.81335,-0.411632
-0.398746,-0.816528,-0.418284
-0.395378,-0.819369,-0.424469
-0.392085,-0.822086,-0.430351
-0.389055,-0.824717,-0.435892
-0.386303,-0.827036,-0.440963
-0.383587,-0.828948,-0.445611
-0.380935,-0.830657,-0.449924
-0.378561,-0.832245,-0.453732
-0.376557,-0.833675,-0.457038
-0.37463,-0.834671,-0.459998
-0.372576,-0.835022,-0.462491
-0.370486,-0.834888,-0.464415
-0.368686,-0.834724,-0.466001
-0.367233,-0.834603,-0.467364
-0.366008,-0.834322,-0.468262
-0.364851,-0.833666,-0.468671
-0.363668,-0.832601,-0.468742
-0.362614,-0.831304,-0.468495
-0.361803,-0.829921,-0.467954
-0.361328,-0.82858,-0.46713
-0.361284,-0.827274,-0.465928
-0.361638,-0.825951,-0.464288
-0.362219,-0.824672,-0.462411
-0.36328,-0.823738,-0.460335
-0.364852,-0.82316,-0.458117
-0.366621,-0.822598,-0.455809
-0.368286,-0.821591,-0.453189
-0.369625,-0.819928,-0.450171
-0.371163,-0.818083,-0.44674
-0.3732,-0.816402,-0.442916
-0.375204,-0.814435,-0.438818
-0.377007,-0.811814,-0.434307
-0.378986,-0.808666,-0.429174
-0.380875,-0.804781,-0.423414
-0.382297,-0.799883,-0.417131
-0.383383,-0.794485,-0.410736
-0.384347,-0.789201,-0.40449
-0.385189,-0.783964,-0.398429
-0.385793,-0.778648,-0.39251
-0.386415,-0.773531,-0.386872
-0.387087,-0.768694,-0.381704
-0.387696,-0.764219,-0.376755
-0.388361,-0.760146,-0.37199
-0.38897,-0.756357,-0.367571
-0.389565,-0.752896,-0.363492
-0.39022,-0.749538,-0.359494
-0.390678,-0.745999,-0.355442
-0.390896,-0.742353,-0.351605
-0.390948,-0.738753,-0.348045
-0.390342,-0.734654,-0.344524
-0.388618,-0.729489,-0.341052
-0.385897,-0.723366,-0.337677
-0.382283,-0.716449,-0.334354
-0.377758,-0.708866,-0.331157
-0.372243,-0.700528,-0.328146
-0.365542,-0.690984,-0.325228
-0.35762,-0.680281,-0.32237
-0.348993,-0.669021,-0.319647
-0.340114,-0.657595,-0.317108
-0.330961,-0.646012,-0.31469
-0.321601,-0.634223,-0.312319
-0.312045,-0.622268,-0.31002
-0.302267,-0.610155,-0.307676
-0.29238,-0.598068,-0.305391
-0.282414,-0.586017,-0.303314
-0.272292,-0.573886,-0.301386
-0.261881,-0.56175,-0.299659
-0.251137,-0.54966,-0.298242
-0.240231,-0.537756,-0.297178
-0.229221,-0.526106,-0.296413
-0.218064,-0.514637,-0.2961
-0.206902,-0.503529,-0.296356
-0.195855,-0.492791,-0.296702
-0.185056,-0.482259,-0.296907
-0.174343,-0.471811,-0.29712
-0.163414,-0.461426,-0.297535
-0.152348,-0.451219,-0.298292
-0.141261,-0.441177,-0.299296
-0.130045,-0.431143,-0.300493
-0.118588,-0.420983,-0.301753
-0.107011,-0.410862,-0.303123
-0.0952194,-0.400651,-0.304765
-0.083214,-0.390325,-0.306481
-0.0713819,-0.380095,-0.3081
-0.0598866,-0.36997,-0.309529
-0.0483069,-0.359484,-0.310507
-0.0365941,-0.348505,-0.311133
-0.0254246,-0.338057,-0.311799
-0.0146452,-0.327954,-0.312483
-0.00380357,-0.317552,-0.313051
0.00730455,-0.306758,-0.313399
0.0186372,-0.295688,-0.313666
0.0295866,-0.285083,-0.314016
0.0400628,-0.274952,-0.314306
0.0502225,-0.265009,-0.314509
0.0600595,-0.255126,-0.31447
0.0695283,-0.245223,-0.314031
0.0782793,-0.235652,-0.313252
0.0862917,-0.226555,-0.312251
0.0938678,-0.217743,-0.311064
0.100931,-0.209171,-0.309549
0.107498,-0.200921,-0.307829
0.113624,-0.193086,-0.30617
0.119241,-0.185735,-0.304484
0.124554,-0.178625,-0.302616
0.129701,-0.171439,-0.300479
0.134554,-0.164276,-0.29819
0.139203,-0.157007,-0.295653
0.143817,-0.149457,-0.292696
0.148172,-0.14187,-0.289429
0.152418,-0.134053,-0.285866
0.156718,-0.125879,-0.282002
0.160997,-0.117457,-0.277761
0.165471,-0.108508,-0.273265
0.170218,-0.0990448,-0.268553
0.175008,-0.0892467,-0.263546
0.179659,-0.0790941,-0.25812
0.184062,-0.0687858,-0.252205
0.187845,-0.0586601,-0.245876
0.190732,-0.048956,-0.239092
0.193042,-0.0394717,-0.231932
0.19494,-0.030205,-0.224527
0.196429,-0.021298,-0.216961
0.197637,-0.012566,-0.209416
0.198394,-0.00420346,-0.201885
0.198792,0.00367222,-0.194345
0.199139,0.0114346,-0.186894
0.199759,0.0192836,-0.179701
0.200642,0.0270104,-0.172891
0.201369,0.0345051,-0.166192
0.202003,0.0420832,-0.159324
0.202663,0.0500126,-0.15212
0.203278,0.0581693,-0.144469
0.204019,0.0666533,-0.136626
0.20501,0.0754856,-0.128773
0.206103,0.0844624,-0.120832
0.207101,0.0936224,-0.11275
0.208284,0.103081,-0.10449
0.209666,0.112753,-0.0961394
0.210927,0.122404,-0.0877129
0.211945,0.131722,-0.0793331
0.212439,0.140326,-0.0712103
0.212454,0.148523,-0.0630969
0.212465,0.156877,-0.054821
0.212574,0.165311,-0.046543
0.212292,0.173204,-0.0383918
0.211825,0.180753,-0.0304128
0.211518,0.188186,-0.022727
0.210847,0.194802,-0.0154466
0.209627,0.200533,-0.00851223
0.20798,0.20557,-0.00182021
0.205845,0.209776,0.00448691
0.203322,0.213267,0.0105606
0.200577,0.216494,0.0167284
0.197759,0.219844,0.0228866
0.194917,0.223269,0.0290329
0.191974,0.226501,0.0351147
0.188934,0.22947,0.0410162
0.185859,0.232273,0.0467483
0.182809,0.235076,0.0524841
0.179979,0.238092,0.0583202
0.17738,0.241422,0.064214
0.175086,0.245192,0.0702844
0.173117,0.249338,0.0765518
0.171228,0.253572,0.0826919
0.16943,0.257927,0.0887323
0.167873,0.262514,0.0948038
0.166383,0.267076,0.100816
0.164666,0.271406,0.106864
0.162742,0.275536,0.11294
0.160613,0.2794,0.118999
0.158334,0.283198,0.125102
0.15607,0.287059,0.131164
0.153695,0.290592,0.136983
0.151113,0.293597,0.142432
0.148539,0.296331,0.147661
0.146182,0.298968,0.152621
0.14402,0.301286,0.157019
0.141915,0.303028,0.160781
0.139968,0.304269,0.163902
0.138077,0.30508,0.166668
0.1361,0.305502,0.169177
0.134393,0.305859,0.171292
0.133043,0.306343,0.173173
0.131774,0.306765,0.174879
0.130551,0.306935,0.176284
0.129278,0.306642,0.177269
0.127632,0.305749,0.177969
0.125471,0.304098,0.178509
0.122961,0.301699,0.178674
0.12012,0.29876,0.178541
0.117036,0.295467,0.178305
0.11391,0.292047,0.178019
0.110712,0.288554,0.17781
0.107478,0.284962,0.177544
0.104215,0.281237,0.177009
0.100806,0.277376,0.17643
0.0972844,0.273449,0.175973
0.0939153,0.269777,0.175594
0.0910475,0.266787,0.175442
0.0886676,0.264471,0.175523
0.086442,0.262402,0.175627
0.0843773,0.260344,0.175627
0.0823794,0.258082,0.175399
0.0801658,0.25548,0.174981
0.0778254,0.252705,0.174493
0.0754021,0.249784,0.173982
0.0728633,0.246615,0.173403
0.0703392,0.243238,0.172578
0.0678184,0.239654,0.171472
0.0650095,0.235627,0.170239
0.061973,0.23137,0.169055
0.0590001,0.227238,0.167928
0.0560635,0.223151,0.166804
0.0530977,0.219096,0.165693
0.0502079,0.215155,0.164589
0.0474065,0.21129,0.163526
0.0446912,0.207537,0.162409
0.0421403,0.203921,0.161214
0.0398671,0.200469,0.160022
0.0380784,0.197505,0.158822
0.0365733,0.194947,0.157706
0.0352699,0.192651,0.156745
0.0342713,0.190791,0.155926
0.0333933,0.189185,0.155228
0.0323891,0.187508,0.154599
0.0310469,0.185588,0.154015
0.0295087,0.183598,0.153526
0.0278012,0.181467,0.15305
0.0258831,0.179017,0.152555
0.0236956,0.176451,0.152243
0.0211704,0.173779,0.152057
0.0183105,0.170836,0.151888
0.0150256,0.167542,0.151733
0.0116453,0.164101,0.151559
0.00839989,0.160613,0.151331
0.0050845,0.156912,0.150987
0.00174058,0.153179,0.15061
-0.00156623,0.149451,0.150221
-0.00480765,0.145781,0.149802
-0.0075495,0.142553,0.149293
-0.00968471,0.139745,0.148614
-0.0117349,0.136749,0.14771
-0.0141305,0.133134,0.146561
-0.0169418,0.129062,0.145311
-0.0199871,0.124776,0.144024
-0.0230551,0.120328,0.142678
-0.0258068,0.115987,0.141161
-0.0282044,0.111865,0.139506
-0.0306672,0.107523,0.137742
-0.0334695,0.102761,0.135719
-0.0365475,0.0976314,0.133532
-0.0397476,0.0922562,0.131345
-0.0433195,0.0864034,0.129061
-0.0471902,0.080065,0.126661
-0.0513107,0.0736307,0.124359
-0.0556347,0.0671858,0.122262
-0.0598242,0.0608465,0.120196
-0.063762,0.0547076,0.118022
-0.067225,0.0489951,0.115819
-0.0701973,0.0436611,0.113509
-0.0727718,0.0385736,0.111063
-0.0748889,0.0338899,0.108537
-0.0764465,0.0295984,0.105808
-0.0773359,0.0257383,0.102848
-0.0776426,0.0222378,0.0995911
-0.0775081,0.0190866,0.0962083
-0.0769587,0.0163541,0.0929417
-0.0759732,0.0139102,0.0895844
-0.0745787,0.0116901,0.086067
-0.0729616,0.00951682,0.0823066
-0.0712106,0.00726747,0.0783275
-0.0692153,0.00518011,0.0743305
-0.0667853,0.00357219,0.0702819
-0.0638157,0.00248184,0.0661867
-0.0604157,0.0017206,0.0620455
-0.0567617,0.00120484,0.0579176
-0.0529801,0.000891654,0.053842
-0.0490761,0.000617774,0.0496356
-0.0452286,0.000272972,0.0454279
-0.0415389,-0.000145402,0.0412414
-0.0380084,-0.0006541,0.0371285
-0.0345516,-0.000958558,0.0334059
-0.0310677,-0.000998447,0.0299446
-0.0278429,-0.00117196,0.0265971
-0.0248722,-0.00129771,0.0235452
-0.0221105,-0.00119796,0.020973
-0.019535,-0.00100176,0.0185873
-0.0169572,-0.000722314,0.0161977
-0.0142397,-0.000386565,0.0138453
-0.0113473,0.000167678,0.0115331
-0.00824689,0.00122258,0.0095413
-0.00500118,0.00289141,0.00806203
-0.00175622,0.0052078,0.00711126
0.00141751,0.00806556,0.00665446
0.00457404,0.0113209,0.00667086
0.00763724,0.0148669,0.00736983
0.0104555,0.0187111,0.00853604
0.0129133,0.0227447,0.0100018
0.0148421,0.0267643,0.0120205
0.0165721,0.0311195,0.0146056
0.0183269,0.0359514,0.0176364
0.02017,0.0411828,0.0210419
0.0220204,0.0467331,0.0247756
0.0234679,0.0522236,0.0288001
0.0244681,0.0575289,0.03313
0.02512,0.0627261,0.0378223
0.0252899,0.0677797,0.0428242
0.0249596,0.0726635,0.0481061
0.0243065,0.0774831,0.0535773
0.0233303,0.0820925,0.059052
0.0220916,0.0864702,0.0646404
0.0206676,0.0907043,0.0702954
0.0188838,0.0946687,0.0760568
0.0167037,0.0982884,0.0819416
0.0142268,0.101544,0.0877727
0.0116007,0.104655,0.093601
0.00895759,0.107749,0.0994403
0.00629488,0.110737,0.10511
0.00353659,0.113587,0.110676
0.000658097,0.116252,0.116219
-0.00216305,0.118899,0.12163
-0.00484017,0.12152,0.126929
-0.00769961,0.123708,0.132028
-0.0110146,0.125364,0.136917
-0.0145803,0.126605,0.14159
-0.0179968,0.127765,0.146124
-0.0212357,0.128904,0.150569
-0.0245845,0.129697,0.154804
-0.0282267,0.130079,0.158782
-0.0320338,0.130029,0.16248
-0.0356773,0.129769,0.165892
-0.039036,0.129491,0.168928
-0.0423034,0.129024,0.171637
-0.0454344,0.128531,0.174218
-0.0485204,0.127892,0.176687
-0.051574,0.127007,0.178897
-0.0542729,0.126355,0.180945
-0.0567956,0.125813,0.182955
-0.0591161,0.125449,0.184898
-0.0608095,0.125655,0.186704
-0.0617977,0.126348,0.188331
-0.0619745,0.127627,0.189775
-0.0613882,0.129427,0.190974
-0.060252,0.13147,0.191904
-0.0588475,0.133514,0.192571
-0.0572121,0.135565,0.193024
-0.055228,0.137657,0.193122
-0.052878,0.13982,0.192903
-0.0506546,0.141802,0.192648
-0.0492209,0.143157,0.192491
-0.0480504,0.14416,0.192355
-0.0466876,0.144959,0.191872
-0.0451723,0.145553,0.190999
-0.0437092,0.145865,0.189895
-0.0423903,0.145862,0.188595
-0.0410548,0.145562,0.187017
-0.0393644,0.145287,0.185066
-0.0367875,0.145512,0.182759
-0.0333331,0.146415,0.180253
-0.0293583,0.148064,0.177865
-0.0251994,0.150081,0.175663
-0.0208922,0.152224,0.173521
-0.0162165,0.154584,0.171242
-0.0112131,0.15706,0.168722
-0.00615454,0.159411,0.166055
-0.00141072,0.161374,0.163303
0.00301158,0.162884,0.160337
0.00736041,0.163937,0.156996
0.0116953,0.164603,0.15333
0.0158452,0.164846,0.149462
0.0197027,0.164735,0.145555
0.0235548,0.164637,0.141575
0.0273774,0.164493,0.137506
0.0309741,0.164119,0.133405
0.0345013,0.163594,0.12927
0.0380325,0.163087,0.125195
0.0416037,0.16272,0.121263
0.0451817,0.162361,0.117412
0.0486348,0.16186,0.113503
0.0519534,0.161269,0.109592
0.0550679,0.160673,0.105866
0.0578535,0.160102,0.102501
0.0604336,0.159656,0.0995052
0.0627638,0.159285,0.096819
0.0646361,0.158689,0.0943508
0.0659485,0.157702,0.0920197
0.0668799,0.156456,0.0898365
0.0677394,0.155243,0.0878058
0.0684836,0.154112,0.0858691
0.0690917,0.152916,0.0840027
0.0694375,0.151436,0.0821014
0.0694493,0.149597,0.0801192
0.0693208,0.147487,0.0780875
0.0691274,0.14519,0.0759792
0.0689935,0.142835,0.0738024
0.0688489,0.140515,0.0717024
0.0685272,0.138289,0.0698072
0.0681463,0.136072,0.068005
0.0677903,0.133869,0.0662679
0.0675385,0.131882,0.064541
0.0672712,0.129928,0.0627796
0.0671032,0.128086,0.0610025
0.0672963,0.126604,0.0593133
0.067715,0.12534,0.0577032
0.068399,0.124384,0.05602
0.069385,0.123681,0.0542563
0.0702594,0.122893,0.0525671
0.0707074,0.121716,0.0508697
0.0708406,0.120066,0.0489885
0.0705641,0.117966,0.0471351
0.0698023,0.115445,0.0453411
0.0687055,0.112423,0.0434066
0.0672413,0.108889,0.0414131
0.0653865,0.104923,0.039339
0.0631934,0.100438,0.0370544
0.060785,0.0955139,0.0345949
0.058043,0.0901757,0.0320335
0.0551108,0.0845405,0.0293682
0.0523506,0.0789428,0.0265269
0.0495816,0.0733219,0.023632
0.0467607,0.0675555,0.0206681
0.0437739,0.0617167,0.0177312
0.0405611,0.0557805,0.0149574
0.0372595,0.0496585,0.0121608
0.0337983,0.0433325,0.00935554
0.0302309,0.0370458,0.00660239
0.0268885,0.0310413,0.00379409
0.0240355,0.0253595,0.00098197
0.0213521,0.0197928,-0.00187671
0.0187174,0.014384,-0.00469578
0.0161784,0.00906493,-0.00738612
0.0134114,0.00343233,-0.0101859
0.0103798,-0.00236609,-0.0129401
0.00724323,-0.00815498,-0.0155667
0.00384439,-0.0142097,-0.0182172
0.000142642,-0.0204858,-0.0207606
-0.00359242,-0.0266527,-0.0232454
-0.00721419,-0.0327171,-0.0257427
-0.0106585,-0.0389019,-0.0284555
-0.0139786,-0.0451134,-0.0314206
-0.0174455,-0.0515089,-0.0343833
-0.0209597,-0.0580845,-0.0373989
-0.0242001,-0.0643024,-0.0403616
-0.0273131,-0.0702418,-0.0432127
-0.0301959,-0.0760857,-0.0462028
-0.0325513,-0.0816599,-0.0494247
-0.0344684,-0.0868659,-0.052694
-0.0359911,-0.0916404,-0.0559143
-0.0371145,-0.0960685,-0.0593525
-0.037821,-0.100447,-0.0631995
-0.0382149,-0.104905,-0.0672389
-0.0389961,-0.109647,-0.071156
-0.0402675,-0.114602,-0.0748545
-0.0413502,-0.119267,-0.0784762
-0.0420604,-0.12377,-0.0822946
-0.0425265,-0.128411,-0.0863818
-0.0429027,-0.133228,-0.0907917
-0.0431474,-0.138232,-0.0955191
-0.0429873,-0.143011,-0.100468
-0.0421995,-0.147262,-0.105721
-0.0406418,-0.151264,-0.111395
-0.0384355,-0.155244,-0.11754
-0.0362033,-0.15922,-0.12372
-0.0345173,-0.163311,-0.129568
-0.0332802,-0.167506,-0.135084
-0.032306,-0.171698,-0.140253
-0.0314265,-0.175625,-0.145054
-0.0301359,-0.178828,-0.149512
-0.0285068,-0.181274,-0.153534
-0.0267017,-0.183151,-0.157152
-0.0248334,-0.184627,-0.160488
-0.0233489,-0.186114,-0.163461
-0.0224542,-0.187928,-0.166151
-0.0223759,-0.190342,-0.168657
-0.0233594,-0.193657,-0.170993
-0.0250729,-0.197555,-0.173127
-0.0271902,-0.201703,-0.175063
-0.0297716,-0.206058,-0.176808
-0.0325259,-0.210393,-0.178357
-0.0353928,-0.214576,-0.179536
-0.0386831,-0.218863,-0.180384
-0.0425349,-0.223509,-0.181068
-0.04677,-0.228352,-0.181578
-0.0510665,-0.232991,-0.181849
-0.0551151,-0.237036,-0.181815
-0.0587721,-0.240202,-0.181382
-0.0620235,-0.242412,-0.180371
-0.0649299,-0.24394,-0.178877
-0.0675352,-0.244708,-0.177003
-0.0696872,-0.244443,-0.174611
-0.0714106,-0.243345,-0.171798
-0.0733639,-0.242264,-0.16881
-0.0757116,-0.241382,-0.165555
-0.0777123,-0.240003,-0.162129
-0.0791841,-0.238078,-0.158701
-0.0803839,-0.23575,-0.155147
-0.0816943,-0.2334,-0.151512
-0.0835682,-0.231551,-0.147859
-0.0859232,-0.230154,-0.144164
-0.0886209,-0.228966,-0.140309
-0.091571,-0.227934,-0.136272
-0.0945946,-0.22702,-0.132326
-0.0978241,-0.226233,-0.128394
-0.101257,-0.225646,-0.124343
-0.104523,-0.224742,-0.12006
-0.107596,-0.223295,-0.115512
-0.110448,-0.221542,-0.110875
-0.113078,-0.219453,-0.106146
-0.115769,-0.217159,-0.101224
-0.118468,-0.21476,-0.0961325
-0.121191,-0.212359,-0.0908681
-0.124001,-0.210047,-0.0856102
-0.126789,-0.207589,-0.0803644
-0.129446,-0.204795,-0.074886
-0.131943,-0.201725,-0.069247
-0.134415,-0.198289,-0.0633124
-0.136853,-0.194486,-0.0570526
-0.139323,-0.190571,-0.0506786
-0.141867,-0.186614,-0.0442317
-0.144331,-0.182579,-0.037679
-0.146845,-0.17854,-0.0308711
-0.149427,-0.174357,-0.0238963
-0.151912,-0.169928,-0.0169342
-0.154256,-0.165288,-0.00995788
-0.15641,-0.160274,-0.00291385
-0.158324,-0.154856,0.00423745
-0.16009,-0.149202,0.0115588
-0.161714,-0.143174,0.0191649
-0.162789,-0.13636,0.0269376
-0.163193,-0.128952,0.0345946
-0.163266,-0.12137,0.0422469
-0.163168,-0.113712,0.0499035
-0.162902,-0.105976,0.0573886
-0.1625,-0.0981627,0.0647525
-0.161969,-0.090335,0.0720051
-0.161298,-0.0824524,0.0791759
-0.160442,-0.074448,0.0862737
-0.159501,-0.0664751,0.0932582
-0.158734,-0.0588153,0.100062
-0.158126,-0.0515091,0.106756
-0.157573,-0.0444283,0.113471
-0.157054,-0.0374305,0.120185
-0.15652,-0.030425,0.126694
-0.156046,-0.0233336,0.133213
-0.155689,-0.0161984,0.13995
-0.155249,-0.00897248,0.146733
-0.154504,-0.00153241,0.153432
-0.153312,0.00614383,0.159892
-0.15189,0.0138674,0.16621
-0.150412,0.0215545,0.172449
-0.148636,0.0295015,0.178535
-0.146462,0.0376911,0.184573
-0.14387,0.0461067,0.190463
-0.140499,0.0552015,0.19615
-0.136206,0.065213,0.201796
-0.131271,0.0757648,0.207296
-0.126027,0.0863366,0.212612
-0.121104,0.0965541,0.21795
-0.116625,0.106297,0.223256
-0.112332,0.115568,0.22828
-0.108255,0.124204,0.232845
-0.104383,0.132032,0.236846
-0.100684,0.139105,0.240208
-0.0970496,0.14551,0.242914
-0.0934879,0.151337,0.245101
-0.0899449,0.156846,0.246884
-0.0861495,0.162324,0.248407
-0.0822281,0.167786,0.249897
-0.0782595,0.173215,0.251323
-0.0740238,0.178807,0.252577
-0.0695685,0.184539,0.253777
-0.0648784,0.190296,0.254902
-0.0597523,0.196429,0.255988
-0.0539146,0.203256,0.256962
-0.0472341,0.210606,0.257612
-0.0401095,0.218062,0.257982
-0.0330299,0.225373,0.258218
-0.0262948,0.232336,0.258399
-0.0197577,0.23895,0.258453
-0.0129597,0.245676,0.258434
-0.0058574,0.252628,0.258387
0.00104172,0.259332,0.258301
0.00762832,0.265685,0.258164
0.0140472,0.271673,0.257779
0.0201539,0.277116,0.257126
0.0260672,0.282242,0.256308
0.0318251,0.287086,0.255346
0.0373301,0.291485,0.254244
0.0425175,0.295549,0.253178
0.0476541,0.299617,0.252193
0.0528709,0.303777,0.251241
0.0578164,0.307761,0.250371
0.0623071,0.31135,0.249577
0.0664452,0.314715,0.248783
0.0705211,0.318017,0.24785
0.0747143,0.321264,0.246782
0.079013,0.324541,0.245706
0.0830919,0.327634,0.244665
0.086779,0.330291,0.243578
0.0902538,0.332476,0.242344
0.0934381,0.334129,0.240916
0.0963457,0.335302,0.23927
0.0991033,0.336013,0.237196
0.101737,0.336284,0.234725
0.104224,0.336233,0.232199
0.10645,0.335903,0.229679
0.108522,0.335359,0.227034
0.11058,0.33463,0.224218
0.112502,0.333663,0.22128
0.114462,0.332445,0.218097
0.116608,0.330933,0.214495
0.11858,0.328989,0.210516
0.120326,0.32651,0.206118
0.12201,0.32359,0.201392
0.123588,0.320322,0.196561
0.125104,0.316811,0.191575
0.12664,0.31332,0.186573
0.128168,0.30991,0.181684
0.129638,0.306472,0.176825
0.131073,0.303025,0.171971
0.132586,0.299712,0.16716
0.134245,0.296586,0.162374
0.13604,0.293596,0.157565
0.137866,0.290636,0.152784
0.139612,0.287657,0.148049
0.141576,0.285039,0.143443
0.144477,0.283522,0.139011
0.148283,0.283062,0.134767
0.152133,0.282833,0.130659
0.15554,0.282273,0.126593
0.158585,0.28133,0.122545
0.161127,0.279897,0.118594
0.162946,0.277833,0.114717
0.163895,0.275012,0.110791
0.164153,0.271504,0.106937
0.16412,0.267497,0.103003
0.163748,0.262781,0.0987115
0.163031,0.257448,0.0941933
0.162149,0.251799,0.0895015
0.161142,0.245932,0.084656
0.160131,0.23999,0.0796687
0.159619,0.234366,0.074475
0.159703,0.229191,0.0691733
0.160201,0.224331,0.0637123
0.160974,0.219663,0.0582054
0.161985,0.215238,0.0528085
0.163038,0.210939,0.0474477
0.164008,0.206526,0.0421039
0.164954,0.201823,0.0365488
0.165514,0.196635,0.0308229
0.165738,0.1912,0.0251454
0.165746,0.185431,0.0194084
0.165443,0.179346,0.0136887
0.165056,0.173441,0.00816964
0.164724,0.167704,0.00277494
0.164471,0.162031,-0.00255639
0.164459,0.156634,-0.00785463
0.164721,0.151452,-0.0132257
0.164839,0.146298,-0.0184147
0.164468,0.141132,-0.0231874
0.163817,0.136063,-0.0275825
0.163238,0.131407,-0.0316933
0.162861,0.127233,-0.0356258
0.162682,0.123364,-0.0393536
0.162755,0.119859,-0.0430014
0.163125,0.116744,-0.0465589
0.163874,0.113947,-0.0500682
0.165094,0.111462,-0.0537441
0.166426,0.109012,-0.0574421
0.167475,0.106439,-0.0609652
0.168183,0.103703,-0.0644446
0.168737,0.100817,-0.0679211
0.169479,0.0981248,-0.0713244
0.170458,0.0957913,-0.074636
0.171444,0.0936317,-0.0778262
0.171955,0.0912414,-0.0807819
0.171643,0.0882472,-0.0835138
0.170847,0.0848112,-0.086184
0.169635,0.081108,-0.0887472
0.167834,0.0769269,-0.0912298
0.165587,0.0722146,-0.0937057
0.162931,0.067174,-0.0961033
0.159766,0.0617873,-0.0982928
0.156012,0.056038,-0.100243
0.151696,0.0499543,-0.102076
0.146648,0.0432746,-0.103739
0.141065,0.0361356,-0.105244
0.135554,0.0289122,-0.106852
0.130069,0.0216249,-0.108571
0.124509,0.0142785,-0.110396
0.119118,0.00691398,-0.112448
0.113786,-0.000581934,-0.114598
0.108441,-0.00819287,-0.116828
0.103251,-0.0157157,-0.119124
0.0983591,-0.0228078,-0.12138
0.0939141,-0.0293279,-0.123573
0.0896001,-0.0356998,-0.125656
0.0852672,-0.0420621,-0.127663
0.0808347,-0.048444,-0.129516
0.0761531,-0.0549093,-0.131272
0.0712828,-0.0614601,-0.133081
0.0662206,-0.068192,-0.134799
0.0609904,-0.0750432,-0.136403
0.0556682,-0.0819988,-0.138016
0.0503258,-0.0889579,-0.139632
0.0449105,-0.0958836,-0.141225
0.0394861,-0.102784,-0.142686
0.0340861,-0.109531,-0.143946
0.0287154,-0.116198,-0.145241
0.0234183,-0.122766,-0.146511
0.0183503,-0.128918,-0.147589
0.0136371,-0.134578,-0.148573
0.00920293,-0.139731,-0.149346
0.00502941,-0.144503,-0.149899
0.000952074,-0.149165,-0.150411
-0.00310362,-0.153739,-0.151023
-0.00701402,-0.158196,-0.151611
-0.0108302,-0.162582,-0.152077
-0.0145534,-0.166873,-0.152636
-0.0181447,-0.171057,-0.153279
-0.0216348,-0.175092,-0.153832
-0.0250456,-0.178959,-0.154313
-0.0285049,-0.182724,-0.15466
-0.032173,-0.186488,-0.15473
-0.0359866,-0.190167,-0.154601
-0.0396919,-0.193742,-0.15466
-0.0431776,-0.197452,-0.155003
-0.0466198,-0.201436,-0.155521
-0.0500975,-0.205754,-0.15634
-0.0535377,-0.210357,-0.157421
-0.0570455,-0.215146,-0.158655
-0.0602923,-0.219965,-0.160204
-0.0631227,-0.224715,-0.162039
-0.066073,-0.229566,-0.163927
-0.0693198,-0.234652,-0.165721
-0.0727414,-0.239859,-0.167636
-0.0763302,-0.245275,-0.169675
-0.0800185,-0.250874,-0.171486
-0.0835758,-0.256349,-0.173289
-0.0869857,-0.261775,-0.175283
-0.0905939,-0.267689,-0.177465
-0.094712,-0.274467,-0.179962
-0.0993449,-0.282092,-0.182901
-0.104577,-0.290694,-0.186316
-0.110681,-0.300809,-0.19027
-0.117704,-0.312603,-0.195077
-0.125483,-0.32584,-0.20076
-0.133999,-0.340643,-0.207033
-0.143196,-0.357001,-0.214106
-0.152624,-0.374392,-0.222075
-0.161962,-0.392281,-0.230667
-0.171541,-0.410797,-0.239592
-0.181308,-0.429643,-0.24863
-0.190927,-0.448028,-0.257342
-0.200575,-0.465692,-0.265223
-0.209927,-0.482116,-0.272002
-0.2185,-0.497175,-0.27787
-0.226426,-0.511264,-0.283789
-0.233634,-0.524391,-0.289821
-0.239636,-0.536012,-0.295433
-0.244098,-0.545425,-0.300398
-0.246644,-0.551661,-0.30415
-0.246444,-0.553453,-0.306264
-0.242966,-0.54998,-0.306275
-0.235869,-0.539989,-0.303416
-0.224335,-0.521599,-0.29635
-0.207932,-0.493709,-0.28258
-0.186883,-0.456607,-0.264871
-0.161523,-0.411044,-0.245062
-0.132271,-0.35723,-0.220865
-0.0991601,-0.295049,-0.192176
-0.0617487,-0.224204,-0.15899
-0.0197282,-0.14442,-0.121356
0.026371,-0.0557595,-0.078936
0.075618,0.0410966,-0.0315783
0.127401,0.14495,0.0202062
0.180815,0.253979,0.0767502
0.234785,0.366583,0.136492
0.288576,0.481647,0.197464
0.341127,0.596936,0.259865
0.391763,0.710539,0.322636
0.440488,0.822,0.385129
0.486764,0.930743,0.447325
0.52969,1.03499,0.508321
0.56931,1.13419,0.567551
0.605928,1.22878,0.625246
0.639488,1.31856,0.681257
0.669901,1.40317,0.735274
0.696951,1.4823,0.787155
0.720455,1.55603,0.837179
0.740269,1.62451,0.885597
0.756183,1.68677,0.931775
0.767516,1.74069,0.974264
0.774549,1.78618,1.01262
0.778125,1.82437,1.04696
0.778712,1.85485,1.0768
0.776363,1.87685,1.10056
0.770406,1.88985,1.11752
0.760755,1.89337,1.12985
0.748063,1.88779,1.13722
0.732733,1.87372,1.13851
0.714446,1.8502,1.13336
0.692757,1.81629,1.12117
0.66782,1.7725,1.10244
0.640025,1.71997,1.07783
0.610163,1.66086,1.04877
0.579185,1.59724,1.01612
0.547361,1.52977,0.979872
0.514237,1.45761,0.940459
0.47932,1.37972,0.897653
0.443318,1.29808,0.852164
0.407533,1.21624,0.806279
0.372568,1.13586,0.761043
0.338521,1.0573,0.7167
0.30553,0.981155,0.673584
0.273978,0.90824,0.632265
0.243934,0.838767,0.592846
0.215263,0.772399,0.555134
0.18803,0.709158,0.51922
0.162367,0.649211,0.48503
0.138283,0.592401,0.45235
0.115197,0.53805,0.421179
0.0926884,0.485626,0.391463
0.070668,0.435074,0.363084
0.049085,0.386247,0.335872
0.0284061,0.339342,0.309706
0.00872111,0.294293,0.284424
-0.0103275,0.250526,0.259672
-0.0288427,0.208059,0.235623
-0.0465012,0.167361,0.212683
-0.0632936,0.128257,0.190565
-0.0797004,0.0902718,0.169034
-0.095525,0.0537421,0.148318
-0.110591,0.0188682,0.12849
-0.125038,-0.0146105,0.1095
-0.138936,-0.0466887,0.0913307
-0.152253,-0.0773698,0.0740211
-0.164609,-0.106464,0.0572955
-0.175972,-0.133852,0.041046
-0.186616,-0.159887,0.025647
-0.196753,-0.184979,0.0108087
-0.206635,-0.209387,-0.00372441
-0.216173,-0.233103,-0.0178955
-0.225282,-0.256227,-0.0318918
-0.234178,-0.279035,-0.045765
-0.24297,-0.301657,-0.0595498
-0.251535,-0.324093,-0.073335
-0.259809,-0.346241,-0.0871428
-0.267647,-0.367841,-0.100997
-0.274792,-0.388417,-0.114475
-0.281202,-0.407805,-0.127399
-0.286642,-0.425858,-0.140054
-0.290854,-0.442456,-0.152413
-0.294222,-0.457745,-0.164283
-0.297146,-0.472003,-0.175574
-0.299623,-0.485325,-0.186361
-0.301576,-0.497637,-0.196658
-0.303,-0.508984,-0.206472
-0.304081,-0.519556,-0.216049
-0.305056,-0.529589,-0.225216
-0.305818,-0.539009,-0.233801
-0.306205,-0.547886,-0.242143
-0.306346,-0.556422,-0.250402
-0.306188,-0.564707,-0.258717
-0.305737,-0.572683,-0.26708
-0.305196,-0.580458,-0.275344
-0.30446,-0.587929,-0.283509
-0.303171,-0.594635,-0.29144
-0.301286,-0.600549,-0.299263
-0.299275,-0.605821,-0.306705
-0.29727,-0.610252,-0.313193
-0.294676,-0.613475,-0.319088
-0.291158,-0.615668,-0.32481
-0.286963,-0.61717,-0.330419
-0.282356,-0.618143,-0.335888
-0.277406,-0.618619,-0.341161
-0.272054,-0.618439,-0.346221
-0.266035,-0.617302,-0.351067
-0.259375,-0.615274,-0.355757
-0.252416,-0.612729,-0.360238
-0.245683,-0.609874,-0.364173
-0.239492,-0.606888,-0.36739
-0.233791,-0.603913,-0.370082
-0.228703,-0.601175,-0.372434
-0.224393,-0.598779,-0.374358
-0.220826,-0.596715,-0.375786
-0.217927,-0.594928,-0.376793
-0.21558,-0.593303,-0.377416
-0.213782,-0.591855,-0.3776
-0.212742,-0.590776,-0.377358
-0.212383,-0.590002,-0.3768
-0.212725,-0.589523,-0.375901
-0.213966,-0.589351,-0.37451
-0.216138,-0.589374,-0.372457
-0.21901,-0.589494,-0.369797
-0.222222,-0.589611,-0.366756
-0.225596,-0.589674,-0.363501
-0.229066,-0.589493,-0.359969
-0.232554,-0.588965,-0.356
-0.235923,-0.587983,-0.35162
-0.239088,-0.586424,-0.346843
-0.242099,-0.584316,-0.341737
-0.24492,-0.581817,-0.336478
-0.247541,-0.579083,-0.331151
-0.250089,-0.576089,-0.325598
-0.252494,-0.572744,-0.31984
-0.254834,-0.569283,-0.314029
-0.257445,-0.565839,-0.308026
-0.260301,-0.562451,-0.301824
-0.263117,-0.559121,-0.29573
-0.265731,-0.555638,-0.289758
-0.268099,-0.552016,-0.283758
-0.270073,-0.548297,-0.277996
-0.271506,-0.544237,-0.272534
-0.27241,-0.539855,-0.267256
-0.272882,-0.535406,-0.262287
-0.272953,-0.530841,-0.257622
-0.272675,-0.526216,-0.253313
-0.272075,-0.521531,-0.24929
-0.270965,-0.516458,-0.245357
-0.269311,-0.510772,-0.241426
-0.267227,-0.504611,-0.237373
-0.264815,-0.498204,-0.233437
-0.262137,-0.49166,-0.22972
-0.259146,-0.485009,-0.226126
-0.255836,-0.47833,-0.222753
-0.25221,-0.47151,-0.219545
-0.248165,-0.464457,-0.216538
-0.243783,-0.457315,-0.213734
-0.239197,-0.450019,-0.211063
-0.234357,-0.442506,-0.208604
-0.228976,-0.434582,-0.206167
-0.222452,-0.425703,-0.203765
-0.214565,-0.41564,-0.201528
-0.205707,-0.404728,-0.199415
-0.196247,-0.39342,-0.197535
-0.186432,-0.382098,-0.196064
-0.176368,-0.370986,-0.195051
-0.166495,-0.360337,-0.19416
-0.157275,-0.350401,-0.193314
-0.148558,-0.341221,-0.193051
-0.140038,-0.332623,-0.193214
-0.131726,-0.324613,-0.193531
-0.123458,-0.317164,-0.194336
-0.115021,-0.310172,-0.19579
-0.106495,-0.303718,-0.197877
-0.0977737,-0.297771,-0.200574
-0.0889665,-0.292265,-0.203828
-0.0801487,-0.287164,-0.207593
-0.0716851,-0.282846,-0.211733
-0.0639518,-0.279503,-0.216269
-0.0567805,-0.276811,-0.220945
-0.050079,-0.274684,-0.22545
-0.0438805,-0.273222,-0.230102
-0.0381954,-0.272509,-0.234999
-0.0329996,-0.272421,-0.239992
-0.0283033,-0.272728,-0.244942
-0.023915,-0.273288,-0.249882
-0.0195339,-0.273885,-0.25484
-0.0151111,-0.274465,-0.259786
-0.0106274,-0.274971,-0.264768
-0.00617176,-0.275377,-0.269729
-0.00178775,-0.275806,-0.274536
0.00267765,-0.276001,-0.279068
0.00698726,-0.275581,-0.28296
0.0111855,-0.274416,-0.28609
0.0156953,-0.272537,-0.288737
0.0205129,-0.270149,-0.2911
0.0255744,-0.267371,-0.293307
0.0308995,-0.264135,-0.295326
0.0363795,-0.260509,-0.297163
0.0419388,-0.256563,-0.298896
0.0475529,-0.252422,-0.300426
0.0531053,-0.248254,-0.301691
0.0584395,-0.244051,-0.302673
0.063422,-0.239776,-0.303309
0.0680414,-0.235453,-0.303637
0.072421,-0.231111,-0.303648
0.0765301,-0.226801,-0.303344
0.08038,-0.222452,-0.302788
0.0841556,-0.217892,-0.301898
0.087944,-0.212929,-0.300641
0.0917065,-0.207636,-0.299093
0.0953268,-0.202205,-0.297271
0.0987558,-0.196614,-0.295125
0.102115,-0.190822,-0.292708
0.105484,-0.184731,-0.289995
0.108752,-0.178453,-0.286986
0.111955,-0.172036,-0.283806
0.115233,-0.165386,-0.280421
0.118537,-0.15859,-0.276812
0.121717,-0.151549,-0.272842
0.124828,-0.144243,-0.268608
0.127844,-0.136811,-0.264232
0.130736,-0.12924,-0.259575
0.133619,-0.121424,-0.254623
0.136331,-0.113518,-0.24945
0.138652,-0.105744,-0.24408
0.140736,-0.0981031,-0.238521
0.143009,-0.0903229,-0.232896
0.145552,-0.0822325,-0.22728
0.148217,-0.0739753,-0.221648
0.150895,-0.0655848,-0.215879
0.15336,-0.0573025,-0.210037
0.15547,-0.0492466,-0.204206
0.157317,-0.0414275,-0.198359
0.158906,-0.0340419,-0.192573
0.160273,-0.0270868,-0.186964
0.161428,-0.0204219,-0.181494
0.162316,-0.013958,-0.175971
0.163033,-0.00753185,-0.170305
0.163674,-0.00111971,-0.164564
0.164337,0.00504833,-0.158891
0.165019,0.0108931,-0.15362
0.165546,0.0164634,-0.148634
0.165939,0.0219351,-0.143591
0.166373,0.0275892,-0.138424
0.167112,0.0338486,-0.132986
0.168378,0.040807,-0.127349
0.169916,0.0481046,-0.121591
0.171523,0.0556407,-0.115645
0.173213,0.06345,-0.109573
0.174911,0.0714209,-0.103333
0.176615,0.0794984,-0.0969556
0.178269,0.0875876,-0.0905789
0.179681,0.0952961,-0.08435
0.180596,0.102385,-0.0781953
0.180963,0.109086,-0.0718608
0.181154,0.11576,-0.0653494
0.181274,0.122322,-0.0589087
0.180959,0.12823,-0.0527536
0.179914,0.13299,-0.0469462
0.178004,0.136548,-0.0414858
0.17543,0.139392,-0.0361136
0.172608,0.141784,-0.0308509
0.169791,0.143865,-0.0258858
0.166961,0.145642,-0.021243
0.164042,0.147009,-0.0169181
0.16115,0.148495,-0.0125087
0.158346,0.150336,-0.00784829
0.155642,0.152292,-0.00326954
0.153476,0.154534,0.00103027
0.15234,0.15749,0.00516473
0.15198,0.161158,0.00923947
0.151741,0.164964,0.013233
0.15113,0.168477,0.0173059
0.14982,0.171638,0.0217203
0.147656,0.174277,0.0265308
0.14485,0.176192,0.0313215
0.141638,0.177358,0.0357756
0.138061,0.177854,0.0399747
0.134206,0.177894,0.0439319
0.13012,0.177512,0.0476095
0.125762,0.17656,0.0510283
0.120991,0.174987,0.0541753
0.116059,0.172853,0.0569327
0.111289,0.17041,0.0592704
0.106576,0.167955,0.0615095
0.101976,0.165793,0.0639671
0.0977067,0.164176,0.0665973
0.0937611,0.163017,0.0692864
0.0899504,0.162094,0.072093
0.0862241,0.161279,0.0749538
0.0826214,0.160479,0.0777023
0.079166,0.159667,0.0803228
0.0757593,0.158857,0.0829003
0.0724759,0.158016,0.085331
0.0693122,0.157072,0.0875435
0.0662647,0.156135,0.0896123
0.0635037,0.155328,0.0915855
0.0609551,0.154587,0.0934408
0.0584487,0.153763,0.0951642
0.0559715,0.152813,0.0967669
0.0536716,0.151788,0.098181
0.0514675,0.150823,0.0994908
0.0492761,0.150047,0.100831
0.0472994,0.149543,0.102195
0.0456806,0.149287,0.103489
0.0442599,0.149027,0.104661
0.04288,0.148721,0.105708
0.041647,0.148522,0.106684
0.0405202,0.148426,0.107704
0.0393206,0.148396,0.108817
0.0380541,0.148494,0.110035
0.0368398,0.148633,0.111343
0.0358295,0.148753,0.1126
0.0348518,0.148962,0.113835
0.0338124,0.149255,0.115173
0.0328833,0.149563,0.116576
0.0318718,0.149767,0.117945
0.0308574,0.149875,0.119132
0.030149,0.150036,0.120024
0.0297023,0.150225,0.120668
0.0294822,0.150411,0.121083
0.0294687,0.150443,0.12122
0.0295694,0.15033,0.121067
0.0299042,0.150124,0.120478
0.030372,0.149621,0.119522
0.0308038,0.148956,0.118461
0.0313685,0.148564,0.117501
0.0320842,0.148553,0.11677
0.0326804,0.148538,0.116149
0.0329696,0.148361,0.115606
0.0331973,0.148177,0.115121
0.033507,0.148087,0.114691
0.0340541,0.148316,0.114328
0.0348369,0.148752,0.11393
0.0355132,0.149064,0.113559
0.0358345,0.149172,0.113311
0.0355878,0.148894,0.113201
0.0348607,0.148181,0.113193
0.0338096,0.147132,0.113222
0.0324149,0.145696,0.11316
0.0306386,0.143732,0.112924
0.0284254,0.141186,0.112675
0.0258772,0.138335,0.112458
0.0233445,0.135352,0.112017
0.0208761,0.132074,0.111222
0.0181769,0.128401,0.110238
0.0150631,0.124417,0.109339
0.01161,0.120291,0.108608
0.00811564,0.11623,0.108017
0.00488056,0.112604,0.107564
0.00209357,0.109533,0.10718
-0.000442698,0.106766,0.106867
-0.0030009,0.103992,0.106638
-0.0056102,0.101098,0.106405
-0.00823121,0.098175,0.106144
-0.0108469,0.0951982,0.105752
-0.0133742,0.0922326,0.105244
-0.0159561,0.0892734,0.104857
-0.0183657,0.0865619,0.104565
-0.0199155,0.0847141,0.104278
-0.0207419,0.0835724,0.103902
-0.0213415,0.0824176,0.103274
-0.0221149,0.0808984,0.102456
-0.0233983,0.078764,0.101605
-0.0251932,0.0760102,0.100723
-0.0271663,0.0731895,0.0998628
-0.0288571,0.0707852,0.0990698
-0.0303004,0.0687466,0.0983901
-0.0316497,0.0666787,0.0976914
-0.032909,0.0644632,0.0967149
-0.0342094,0.0619165,0.0954376
-0.03556,0.0589026,0.0938082
-0.0366759,0.0556403,0.0916745
-0.0373291,0.0523503,0.0890445
-0.037279,0.0493121,0.085959
-0.0362202,0.0468246,0.0824066
-0.0343211,0.0448504,0.0785252
-0.0317542,0.0434333,0.0746321
-0.0284955,0.0429314,0.0709117
-0.0246233,0.0432257,0.0673186
-0.0203726,0.0439941,0.0638411
-0.0162317,0.0450993,0.060805
-0.0125934,0.0463829,0.0585472
-0.00954539,0.0476163,0.0568894
-0.00704255,0.0487288,0.0555752
-0.00468765,0.0500151,0.0545568
-0.00206692,0.0517952,0.0537623
0.000707296,0.0540883,0.0532619
0.00330843,0.0567166,0.053241
0.00580405,0.0594913,0.0535
0.0081041,0.062119,0.0538575
0.0099436,0.0643673,0.0542312
0.0112944,0.0661987,0.0548602
0.0119904,0.0675925,0.0558682
0.012043,0.0687105,0.056964
0.0119451,0.0697481,0.058076
0.0120531,0.0707956,0.0591584
0.0122144,0.0720676,0.0602797
0.0121183,0.0734989,0.0616644
0.011613,0.0748112,0.0634351
0.0107235,0.0760389,0.065579
0.00966106,0.0775106,0.0680862
0.00873773,0.0795129,0.0712024
0.00787953,0.0820336,0.0749449
0.00692326,0.0848514,0.0787518
0.00589584,0.0878152,0.0826354
0.00476926,0.0910791,0.0870265
0.00357743,0.0947151,0.0918642
0.00235236,0.0985888,0.0969423
0.00105065,0.102609,0.102226
-0.000401864,0.106698,0.107739
-0.00212144,0.110696,0.113405
-0.00423731,0.114523,0.119361
-0.0066966,0.1182,0.125787
-0.00939583,0.121825,0.132243
-0.0123644,0.125391,0.138632
-0.0155361,0.12881,0.145116
-0.0188082,0.132109,0.151601
-0.0221042,0.135312,0.158129
-0.0254456,0.138524,0.164689
-0.028993,0.14163,0.171256
-0.0328704,0.14449,0.177891
-0.0370269,0.14721,0.184658
-0.0413475,0.149735,0.191532
-0.0456237,0.15204,0.198273
-0.0497398,0.154221,0.204654
-0.0536203,0.156327,0.210677
-0.0570208,0.158503,0.216334
-0.0599995,0.160859,0.221682
-0.0628121,0.163172,0.226754
-0.0653516,0.165319,0.231445
-0.0674845,0.167546,0.235809
-0.0693194,0.169838,0.239898
-0.0709923,0.171986,0.243684
-0.0726312,0.17381,0.24713
-0.0742764,0.175261,0.250202
-0.0758255,0.17639,0.252822
-0.0770952,0.177227,0.254961
-0.0780405,0.177928,0.25675
-0.0789337,0.178491,0.258278
-0.0798573,0.179005,0.259695
-0.0807212,0.179535,0.261082
-0.0816685,0.17975,0.26222
-0.0826732,0.179673,0.263096
-0.0835367,0.179505,0.263865
-0.0843267,0.179249,0.264446
-0.0851401,0.178919,0.264891
-0.0857074,0.178823,0.265417
-0.0859156,0.179148,0.266034
-0.0860734,0.179523,0.266548
-0.0861099,0.179909,0.266911
-0.0859055,0.180456,0.267225
-0.0852809,0.181391,0.267483
-0.0838609,0.183023,0.267639
-0.0818751,0.185106,0.267643
-0.0795531,0.187503,0.267515
-0.076684,0.190177,0.267171
-0.0732433,0.193008,0.266588
-0.0695566,0.195896,0.265817
-0.0657095,0.198771,0.264793
-0.0617094,0.201544,0.263517
-0.0579642,0.203732,0.261934
-0.0547236,0.205182,0.260138
-0.0519547,0.205907,0.258114
-0.0496992,0.205747,0.255685
-0.0477353,0.204892,0.252811
-0.045707,0.203652,0.249573
-0.0436137,0.202152,0.245989
-0.0413749,0.200575,0.242124
-0.0388681,0.19895,0.23798
-0.0361923,0.197288,0.233575
-0.0333006,0.195708,0.229027
-0.0297881,0.194505,0.224183
-0.0251479,0.194117,0.219032
-0.0196263,0.194259,0.213606
-0.0137232,0.19451,0.207932
-0.00777573,0.194618,0.202133
-0.00234786,0.1942,0.196293
0.00257174,0.193427,0.190484
0.00764936,0.192702,0.184592
0.0128899,0.191916,0.178607
0.017676,0.190654,0.172647
0.0217621,0.188694,0.166589
0.0250315,0.186022,0.160671
0.0272886,0.182776,0.155176
0.0288452,0.179133,0.149856
0.0301155,0.174976,0.14444
0.0311153,0.170109,0.138653
0.0319597,0.164847,0.132557
0.0329979,0.159653,0.126246
0.0344108,0.154601,0.119691
0.0359741,0.149579,0.113026
0.0375835,0.144499,0.10627
0.0394682,0.139484,0.0993344
0.0415897,0.134565,0.0922295
0.0435772,0.129692,0.0853249
0.0453561,0.125005,0.0787822
0.0470707,0.120513,0.0724392
0.0488096,0.116186,0.0663157
0.0504625,0.111978,0.0604016
0.0519724,0.107799,0.0546409
0.0535266,0.103738,0.0490731
0.0551007,0.0998884,0.0437135
0.0566648,0.0962548,0.0385258
0.0581645,0.0926847,0.0334976
0.059555,0.0890627,0.0285274
0.0609281,0.0854684,0.023631
0.0622432,0.0818826,0.0188802
0.0634154,0.0783161,0.0142282
0.0642981,0.074714,0.00969631
0.0648341,0.0709167,0.00535848
0.0651036,0.0668752,0.00116738
0.0650687,0.062717,-0.00289316
0.0647744,0.0584465,-0.0068521
0.064203,0.0539021,-0.0107911
0.0632514,0.0490909,-0.0146009
0.0619568,0.0441499,-0.0182102
0.0604213,0.0391429,-0.0216498
0.059082,0.0344981,-0.0249424
0.0584636,0.0308197,-0.0279747
0.0582964,0.0279965,-0.0305945
0.0580792,0.0254758,-0.0328641
0.0577016,0.0228454,-0.0350314
0.0570399,0.0199995,-0.0372371
0.055878,0.016817,-0.0393488
0.0541067,0.0131196,-0.0414524
0.0519715,0.00890626,-0.0437471
0.0496436,0.00422699,-0.0461087
0.0470235,-0.00103671,-0.0487235
0.0442721,-0.00697371,-0.0518246
0.0413736,-0.0134216,-0.0552572
0.0380793,-0.0203643,-0.0588699
0.0343699,-0.0278942,-0.0625909
0.030368,-0.0357943,-0.0664569
0.0263294,-0.0438172,-0.0704535
0.0225017,-0.0517443,-0.074563
0.0190036,-0.0593413,-0.0787793
0.0154919,-0.0668358,-0.0827518
0.0118178,-0.0743192,-0.0864795
0.00830267,-0.0815525,-0.0901821
0.0048941,-0.0886291,-0.0937507
0.00146936,-0.0956295,-0.0973048
-0.00163244,-0.102363,-0.10095
-0.00426,-0.108736,-0.104661
-0.00664574,-0.114951,-0.108363
-0.00891497,-0.121155,-0.112167
-0.011199,-0.127362,-0.116144
-0.0136815,-0.133638,-0.119996
-0.0163612,-0.140043,-0.123715
-0.0191163,-0.146555,-0.127448
-0.0218522,-0.15306,-0.131146
-0.0246272,-0.159413,-0.134679
-0.0274156,-0.165558,-0.138121
-0.029993,-0.171429,-0.141459
-0.0325026,-0.177063,-0.14454
-0.0348855,-0.18239,-0.147458
-0.036712,-0.187061,-0.150377
-0.0380736,-0.191153,-0.15318
-0.0393237,-0.195034,-0.15576
-0.0402872,-0.198707,-0.158315
-0.040813,-0.201969,-0.160935
-0.0411003,-0.204899,-0.163529
-0.0412901,-0.207731,-0.166143
-0.0414147,-0.210452,-0.168827
-0.0414844,-0.213131,-0.171489
-0.0416229,-0.215839,-0.174038
-0.0418993,-0.218564,-0.176586
-0.0423386,-0.221526,-0.179145
-0.0430507,-0.224751,-0.181532
-0.0442325,-0.228321,-0.183877
-0.0458346,-0.23226,-0.186252
-0.0476629,-0.236406,-0.188606
-0.0496686,-0.240727,-0.19096
-0.0517451,-0.245078,-0.19326
-0.0538391,-0.24943,-0.195524
-0.055947,-0.253836,-0.19782
-0.0580257,-0.258201,-0.200196
-0.0598873,-0.26235,-0.202627
-0.0615092,-0.266197,-0.204885
-0.0631512,-0.269943,-0.206993
-0.0647901,-0.273676,-0.209057
-0.0662438,-0.277227,-0.211084
-0.0676286,-0.280639,-0.213085
-0.0690137,-0.283909,-0.214944
-0.0704379,-0.286991,-0.216647
-0.072004,-0.289965,-0.218135
-0.0738288,-0.292791,-0.219159
-0.0759213,-0.295518,-0.219811
-0.0780496,-0.298191,-0.220244
-0.0800954,-0.300674,-0.220599
-0.0821548,-0.30294,-0.220811
-0.0842714,-0.305049,-0.220716
-0.0862656,-0.306842,-0.220481
-0.0880155,-0.30822,-0.220124
-0.0894602,-0.309236,-0.21965
-0.0908567,-0.309975,-0.218955
-0.0920727,-0.31025,-0.218048
-0.0928503,-0.309996,-0.217095
-0.0933884,-0.309445,-0.216144
-0.0936072,-0.308545,-0.215169
-0.0934853,-0.307273,-0.214023
-0.0930499,-0.305625,-0.212821
-0.0924807,-0.303812,-0.211658
-0.0920134,-0.302265,-0.210563
-0.091696,-0.30097,-0.209637
-0.0914465,-0.299797,-0.208793
-0.0910738,-0.298619,-0.20793
-0.0907462,-0.297328,-0.206887
-0.0906084,-0.296091,-0.205734
-0.0906225,-0.294965,-0.204519
-0.0910201,-0.294038,-0.203162
-0.0915639,-0.29296,-0.201561
-0.0918702,-0.29125,-0.199572
-0.0921202,-0.28923,-0.197282
-0.0926174,-0.287296,-0.194779
-0.093487,-0.285624,-0.192174
-0.0946122,-0.284123,-0.189511
-0.0960165,-0.282675,-0.186627
-0.0976752,-0.281199,-0.183392
-0.0994706,-0.279605,-0.179937
-0.101259,-0.277866,-0.176438
-0.102852,-0.27587,-0.172875
-0.104185,-0.273591,-0.169298
-0.10528,-0.271019,-0.165655
-0.106175,-0.26814,-0.161845
-0.106869,-0.265018,-0.157902
-0.107306,-0.261576,-0.153863
-0.107454,-0.257587,-0.149673
-0.107396,-0.253064,-0.145118
-0.107273,-0.248212,-0.140314
-0.107087,-0.243062,-0.135397
-0.106771,-0.237538,-0.130222
-0.106351,-0.231667,-0.124866
-0.105861,-0.225565,-0.119441
-0.105206,-0.219323,-0.11396
-0.104249,-0.212878,-0.10847
-0.103143,-0.206177,-0.102881
-0.101939,-0.199092,-0.0970498
-0.100636,-0.191862,-0.0911116
-0.0993431,-0.18478,-0.0852443
-0.0979867,-0.177577,-0.079419
-0.0965123,-0.170225,-0.0736291
-0.0949219,-0.162872,-0.0679185
-0.0931775,-0.155526,-0.062293
-0.091297,-0.148152,-0.0567838
-0.0892772,-0.140724,-0.0513524
-0.0871288,-0.133209,-0.0459377
-0.0848417,-0.125594,-0.0405776
-0.0822199,-0.11777,-0.0353022
-0.0789654,-0.109391,-0.0301408
-0.0749993,-0.100333,-0.0250547
-0.071017,-0.0913543,-0.020045
-0.0673114,-0.0830376,-0.0153589
-0.0635561,-0.0752376,-0.0112348
-0.0599388,-0.0680189,-0.00760461
-0.0567695,-0.0614778,-0.00422168
-0.0540385,-0.0554947,-0.000933894
-0.0516625,-0.0500359,0.00217104
-0.0496232,-0.0451054,0.0050774
-0.0479496,-0.040771,0.00778692
-0.0467954,-0.0371102,0.0102838
-0.0461713,-0.0339213,0.0127734
-0.045692,-0.0307828,0.0153565
-0.0450153,-0.0274284,0.0180355
-0.04396,-0.0235573,0.0208898
-0.0422155,-0.018851,0.0238908
-0.0399588,-0.0135814,0.0269041
-0.0377443,-0.00822822,0.0299621
-0.0357055,-0.00297572,0.0331266
-0.0336941,0.00224831,0.0363008
-0.0315435,0.00748999,0.039373
-0.0292445,0.0126701,0.0422577
-0.0269891,0.0176783,0.045032
-0.024931,0.0224396,0.0477984
-0.0229605,0.0271005,0.0505135
-0.0208606,0.0317986,0.0531229
-0.0185614,0.0365842,0.055596
-0.0160573,0.0414755,0.057964
-0.0135306,0.0463161,0.0602615
-0.0110656,0.0510892,0.062535
-0.00859476,0.0556923,0.0646232
-0.00601417,0.0601448,0.066502
-0.00315957,0.0648183,0.0682972
-1.7198e-05,0.0698605,0.0700851
0.00336541,0.0752365,0.0719891
0.00707038,0.0809705,0.074004
0.0110475,0.0869769,0.0760572
0.0150154,0.0929802,0.0781386
0.0186825,0.0987499,0.0803147
0.021869,0.104337,0.0826983
0.0250275,0.109954,0.0851791
0.0285036,0.115688,0.0874974
0.0322343,0.12154,0.0896411
0.036287,0.127538,0.0915912
0.0405109,0.133567,0.0933269
0.0447707,0.139509,0.0949298
0.0489591,0.145189,0.0963665
0.0530221,0.150386,0.0975327
0.0571029,0.155253,0.0983616
0.0610355,0.159868,0.0990856
0.0646769,0.164242,0.0999301
0.0683414,0.16878,0.10086
0.0720164,0.173634,0.102104
0.0751693,0.178462,0.103869
0.0777274,0.183223,0.106031
0.0799972,0.187787,0.108211
0.0821538,0.191885,0.110135
0.0844086,0.195584,0.111609
0.0870272,0.199143,0.112487
0.0901118,0.202802,0.112924
0.0935577,0.206494,0.112975
0.097239,0.209998,0.11271
0.101191,0.213268,0.112084
0.105273,0.216345,0.111061
0.109064,0.219013,0.109861
0.112451,0.22109,0.108582
0.115428,0.222546,0.107141
0.117987,0.223472,0.105502
0.120373,0.22416,0.103775
0.122619,0.224645,0.102001
0.124925,0.225125,0.100236
0.127445,0.225752,0.0984803
0.129903,0.226372,0.0966722
0.132246,0.226956,0.0948683
0.134399,0.227317,0.0930363
0.136243,0.227289,0.0911231
0.137814,0.226988,0.0892483
0.139174,0.226503,0.0874036
0.140327,0.225962,0.0856397
0.141585,0.225642,0.0839564
0.143227,0.225667,0.0822531
0.14531,0.226053,0.0805274
0.147664,0.226533,0.0786619
0.149761,0.22666,0.0767213
0.151396,0.226196,0.0746485
0.152572,0.225155,0.0723764
0.153284,0.223499,0.069967
0.15353,0.221103,0.067362
0.153206,0.217954,0.0645827
0.152197,0.214001,0.0617108
0.15052,0.209252,0.0586191
0.14829,0.20379,0.0552959
0.145595,0.197692,0.0519515
0.142774,0.191277,0.0483765
0.140159,0.184831,0.044525
0.13744,0.178176,0.040597
0.134485,0.171274,0.0366709
0.131472,0.164357,0.0328108
0.128415,0.157376,0.0289235
0.125353,0.150416,0.025072
0.122211,0.143626,0.0213986
0.119163,0.137243,0.0179578
0.116494,0.13151,0.0148118
0.114153,0.126156,0.0117442
0.111961,0.120942,0.00870631
0.109818,0.115784,0.00568488
0.107558,0.110383,0.00251673
0.104922,0.104472,-0.00075861
0.101808,0.0980136,-0.00403186
0.0981821,0.091028,-0.00732115
0.0940656,0.0834819,-0.0108064
0.0896259,0.0754969,-0.0144896
0.0850011,0.0671298,-0.0182991
0.080301,0.0584419,-0.0221877
0.0755756,0.0497942,-0.025986
0.0706513,0.0412085,-0.0296107
0.0654255,0.0324601,-0.0331117
0.059902,0.0236192,-0.0364366
0.0543454,0.0148675,-0.039649
0.0489044,0.00610856,-0.0429423
0.0434714,-0.00271207,-0.0462928
0.0380656,-0.011429,-0.0496662
0.0327249,-0.0199809,-0.0529879
0.0274515,-0.0284327,-0.0561677
0.0222942,-0.0367519,-0.0592795
0.0173723,-0.0448502,-0.0623797
0.0123899,-0.0530203,-0.0654381
0.00714919,-0.0614577,-0.0685883
0.00177188,-0.0700575,-0.0717613
-0.00386814,-0.0789156,-0.0749495
-0.00993581,-0.0882591,-0.0781754
-0.0163452,-0.0981347,-0.0817754
-0.0231622,-0.108709,-0.0859226
-0.0307356,-0.12049,-0.0901845
-0.0392189,-0.133805,-0.0949472
-0.0485548,-0.148518,-0.10033
-0.0586885,-0.164614,-0.106303
-0.0697478,-0.182406,-0.11315
-0.081578,-0.201972,-0.120943
-0.0939192,-0.222975,-0.129582
-0.1066,-0.244795,-0.138724
-0.119438,-0.266988,-0.148122
-0.132276,-0.28906,-0.157349
-0.144851,-0.310675,-0.166318
-0.157059,-0.331684,-0.17507
-0.16888,-0.351768,-0.183262
-0.180251,-0.370973,-0.191056
-0.190978,-0.389482,-0.198779
-0.200813,-0.406982,-0.206385
-0.20925,-0.422677,-0.213546
-0.215829,-0.435704,-0.220059
-0.220298,-0.44511,-0.224942
-0.221963,-0.449774,-0.226228
-0.220066,-0.448479,-0.225599
-0.214015,-0.439973,-0.223364
-0.203047,-0.422964,-0.217444
-0.186707,-0.396305,-0.207324
-0.16492,-0.359548,-0.192466
-0.138295,-0.313779,-0.173387
-0.107654,-0.26028,-0.150649
-0.0726559,-0.198194,-0.123661
-0.0327854,-0.126605,-0.0921543
0.0112001,-0.0468614,-0.0551053
0.0587242,0.0405248,-0.0136516
0.109341,0.135437,0.0305278
0.162059,0.236359,0.0784163
0.216026,0.341749,0.129652
0.270168,0.449906,0.183437
0.323478,0.55899,0.238903
0.37521,0.667118,0.295038
0.424729,0.772506,0.350702
0.471745,0.874635,0.405556
0.515563,0.972788,0.46001
0.555516,1.06572,0.513344
0.59213,1.15385,0.56473
0.626076,1.23792,0.61462
0.657642,1.31803,0.662934
0.68644,1.39342,0.709334
0.712033,1.46375,0.753877
0.734509,1.52973,0.797253
0.753776,1.59127,0.839343
0.769307,1.64669,0.879121
0.780625,1.69426,0.914724
0.78793,1.73408,0.945524
0.79196,1.76716,0.973843
0.793066,1.7927,0.998367
0.790767,1.80941,1.01729
0.784479,1.81686,1.03098
0.774508,1.81498,1.03901
0.761365,1.80411,1.04131
0.744802,1.78364,1.03738
0.724358,1.75268,1.02688
0.699874,1.71111,1.00966
0.671573,1.65931,0.984944
0.639929,1.59869,0.955173
0.605778,1.53144,0.922235
0.570171,1.45942,0.88593
0.533404,1.38322,0.846709
0.495206,1.30197,0.803791
0.455833,1.21537,0.756716
0.416269,1.12604,0.707135
0.37734,1.037,0.657189
0.33938,0.949533,0.607717
0.302895,0.864827,0.559526
0.26818,0.783948,0.513458
0.235103,0.707155,0.469866
0.203663,0.634266,0.428607
0.173859,0.565266,0.389542
0.145661,0.50014,0.352631
0.118959,0.438559,0.317818
0.0933391,0.379832,0.284847
0.0684526,0.323157,0.253186
0.0441973,0.268238,0.222613
0.0206433,0.215077,0.192965
-0.00201694,0.163693,0.164151
-0.0238979,0.114005,0.136355
-0.0451745,0.065851,0.109561
-0.0656181,0.0195063,0.0838332
-0.0849943,-0.0247164,0.0591803
-0.103171,-0.0666984,0.0354987
-0.120078,-0.106244,0.0128972
-0.135726,-0.14333,-0.00849148
-0.150245,-0.178221,-0.0287534
-0.163693,-0.211065,-0.0480018
-0.176232,-0.241881,-0.0662969
-0.187968,-0.270813,-0.0835958
-0.198956,-0.298243,-0.100003
-0.209515,-0.324417,-0.115592
-0.21986,-0.349432,-0.130283
-0.229924,-0.373377,-0.144132
-0.239707,-0.396397,-0.157233
-0.249394,-0.418615,-0.169596
-0.259026,-0.440141,-0.181338
-0.26849,-0.460983,-0.192626
-0.277816,-0.481064,-0.20351
-0.286991,-0.500365,-0.213806
-0.296032,-0.519046,-0.223444
-0.305071,-0.537217,-0.232543
-0.313729,-0.554454,-0.241022
-0.321853,-0.570606,-0.248899
-0.329746,-0.586138,-0.256434
-0.33772,-0.601502,-0.26376
-0.345822,-0.616719,-0.270817
-0.353893,-0.631701,-0.277652
-0.361873,-0.646496,-0.284626
-0.369479,-0.661062,-0.291743
-0.376462,-0.675352,-0.298923
-0.382852,-0.689251,-0.306319
-0.388536,-0.702486,-0.313779
-0.393484,-0.715101,-0.321348
-0.397814,-0.727251,-0.329069
-0.401378,-0.738594,-0.336762
-0.404269,-0.748849,-0.344094
-0.406734,-0.758113,-0.350807
-0.408626,-0.766447,-0.357482
-0.409631,-0.773863,-0.364255
-0.409693,-0.780355,-0.37077
-0.408327,-0.785575,-0.377426
-0.405299,-0.789426,-0.384304
-0.401246,-0.792297,-0.391121
-0.396389,-0.79435,-0.397956
-0.390652,-0.795747,-0.405034
-0.384063,-0.796606,-0.412431
-0.376699,-0.796712,-0.419872
-0.368776,-0.795915,-0.426938
-0.360402,-0.794118,-0.433481
-0.351635,-0.791312,-0.439455
-0.342788,-0.787869,-0.44489
-0.334284,-0.78417,-0.449702
-0.326426,-0.780611,-0.453938
-0.319292,-0.777274,-0.457707
-0.312767,-0.77386,-0.46086
-0.306674,-0.770349,-0.463459
-0.301189,-0.766896,-0.465464
-0.296522,-0.763464,-0.46666
-0.292717,-0.760173,-0.4671
-0.28974,-0.757081,-0.466927
-0.287491,-0.753929,-0.465989
-0.286037,-0.750449,-0.463953
-0.285145,-0.746485,-0.460892
-0.284488,-0.742221,-0.457235
-0.284186,-0.737933,-0.453265
-0.284352,-0.733857,-0.449081
-0.284992,-0.729994,-0.444672
-0.28615,-0.726321,-0.439879
-0.288068,-0.723147,-0.434673
-0.290799,-0.720468,-0.429282
-0.294057,-0.718107,-0.423708
-0.297887,-0.716083,-0.41781
-0.30211,-0.713996,-0.411509
-0.306658,-0.711794,-0.404734
-0.311753,-0.709854,-0.397569
-0.317345,-0.708085,-0.390125
-0.323303,-0.706362,-0.382417
-0.329504,-0.704634,-0.3745
-0.335861,-0.702817,-0.366311
-0.342277,-0.70078,-0.35783
-0.34856,-0.698396,-0.349233
-0.354679,-0.69576,-0.340538
-0.360628,-0.692939,-0.331775
-0.366371,-0.689942,-0.322946
-0.371941,-0.686646,-0.314031
-0.377207,-0.682991,-0.305111
-0.38217,-0.679098,-0.296291
-0.386773,-0.674914,-0.287556
-0.39084,-0.670308,-0.27886
-0.394325,-0.665204,-0.270298
-0.397237,-0.659665,-0.261927
-0.399529,-0.653782,-0.253807
-0.401166,-0.647546,-0.245876
-0.40216,-0.64076,-0.2381
-0.402422,-0.633496,-0.23058
-0.402074,-0.625969,-0.223308
-0.401153,-0.61811,-0.216397
-0.399534,-0.60984,-0.209897
-0.397222,-0.601243,-0.203793
-0.394191,-0.592342,-0.198164
-0.390524,-0.583179,-0.192767
-0.386261,-0.573817,-0.187592
-0.381362,-0.564234,-0.182845
-0.376,-0.554463,-0.178438
-0.370072,-0.544503,-0.174406
-0.3633,-0.534205,-0.170856
-0.355895,-0.523672,-0.167738
-0.348103,-0.513219,-0.164928
-0.340065,-0.502896,-0.162532
-0.331615,-0.492665,-0.160909
-0.322723,-0.482481,-0.159781
-0.313765,-0.472432,-0.158728
-0.304735,-0.462666,-0.158
-0.295394,-0.453077,-0.157742
-0.285651,-0.443527,-0.157888
-0.275561,-0.434147,-0.158567
-0.265223,-0.424976,-0.159771
-0.254751,-0.416053,-0.16134
-0.244325,-0.407569,-0.163228
-0.233934,-0.399435,-0.165701
-0.223394,-0.391474,-0.168592
-0.212707,-0.383779,-0.171547
-0.201892,-0.376342,-0.174867
-0.190917,-0.369207,-0.17869
-0.180011,-0.362566,-0.182876
-0.169255,-0.35634,-0.18737
-0.158554,-0.350446,-0.192219
-0.147875,-0.345036,-0.197468
-0.137336,-0.339995,-0.20284
-0.127062,-0.335061,-0.208202
-0.116815,-0.330125,-0.213689
-0.106357,-0.325055,-0.219096
-0.0956861,-0.319822,-0.22445
-0.0848941,-0.314542,-0.229825
-0.0742679,-0.309312,-0.235115
-0.0641105,-0.304214,-0.240205
-0.0542851,-0.299353,-0.24514
-0.0447031,-0.294699,-0.249998
-0.035488,-0.290246,-0.2547
-0.0266216,-0.285979,-0.259317
-0.0178392,-0.281603,-0.263825
-0.00909933,-0.277001,-0.268005
-0.000603114,-0.272385,-0.271914
0.00769441,-0.267849,-0.275685
0.015789,-0.263392,-0.279264
0.0234828,-0.259139,-0.28267
0.0305906,-0.255196,-0.285893
0.0370655,-0.251456,-0.288671
0.0428912,-0.247739,-0.290775
0.0481734,-0.24401,-0.292297
0.053072,-0.240269,-0.293424
0.0577045,-0.236475,-0.294222
0.062075,-0.232746,-0.294769
0.0661405,-0.229175,-0.295228
0.0699947,-0.225671,-0.295619
0.0737729,-0.222089,-0.295947
0.0776491,-0.218329,-0.296086
0.0818134,-0.214292,-0.296115
0.0861839,-0.209846,-0.295921
0.0904556,-0.20492,-0.295129
0.0946431,-0.199412,-0.293648
0.0988133,-0.19316,-0.291505
0.103063,-0.186151,-0.288859
0.107289,-0.178619,-0.285662
0.111146,-0.170906,-0.281875
0.114607,-0.163241,-0.277658
0.117602,-0.155745,-0.273088
0.120185,-0.148317,-0.268237
0.122503,-0.140787,-0.263053
0.124415,-0.133285,-0.257442
0.125971,-0.125718,-0.25138
0.127671,-0.117571,-0.244885
0.129678,-0.108809,-0.238096
0.131905,-0.0994848,-0.230984
0.134336,-0.0895861,-0.223521
0.136662,-0.0795837,-0.215855
0.138988,-0.069445,-0.208086
0.141523,-0.058937,-0.200182
0.14398,-0.0482885,-0.191989
0.146272,-0.0374913,-0.183498
0.148154,-0.0266893,-0.174574
0.149159,-0.0163496,-0.165106
0.149539,-0.00654319,-0.155624
0.149618,0.00280832,-0.14641
0.149362,0.0116781,-0.137331
0.148896,0.0200631,-0.128533
0.148442,0.0280982,-0.120066
0.148226,0.036033,-0.111901
0.148147,0.0438141,-0.104053
0.148078,0.0513119,-0.0965202
0.148064,0.0585489,-0.0893097
0.147895,0.0656048,-0.0819995
0.147506,0.0726192,-0.0745278
0.146912,0.0795723,-0.0670976
0.146106,0.0863442,-0.0596142
0.145421,0.0932412,-0.0521127
0.145178,0.100587,-0.0445903
0.145239,0.108173,-0.0371344
0.145377,0.115768,-0.0298445
0.145581,0.123195,-0.0226919
0.145647,0.130313,-0.015659
0.145515,0.137146,-0.00853892
0.145245,0.143782,-0.00138435
0.144805,0.150356,0.00563965
0.144119,0.156741,0.0126795
0.143108,0.162739,0.0196488
0.14176,0.168338,0.0265003
0.140164,0.173626,0.0333093
0.138602,0.178884,0.0401194
0.137143,0.184093,0.046859
0.135587,0.189069,0.0534335
0.133808,0.193799,0.0599756
0.131929,0.198343,0.0664799
0.129964,0.202742,0.07285
0.127775,0.206857,0.079129
0.125229,0.210641,0.0854262
0.122263,0.214276,0.0918857
0.119048,0.217744,0.0984454
0.115921,0.221154,0.104892
0.11307,0.224577,0.111156
0.110386,0.22787,0.117185
0.107655,0.230981,0.123041
0.104871,0.233887,0.128839
0.102187,0.236691,0.134345
0.0996457,0.239368,0.139545
0.0970554,0.241734,0.144553
0.0941278,0.243582,0.149315
0.090846,0.244774,0.153857
0.0872753,0.245391,0.158125
0.0834301,0.245489,0.162093
0.0794316,0.24504,0.165729
0.0753869,0.244194,0.168953
0.0712835,0.242996,0.171876
0.0671762,0.241455,0.174495
0.0632571,0.239643,0.17665
0.0596065,0.237853,0.17852
0.0561857,0.236273,0.180303
0.0529716,0.234704,0.181908
0.0499355,0.233018,0.183311
0.0470902,0.231254,0.184558
0.0444878,0.229568,0.185642
0.0420968,0.228102,0.186542
0.0399606,0.226861,0.187403
0.0381268,0.225816,0.188191
0.036606,0.22495,0.188764
0.0354482,0.224262,0.189217
0.034466,0.223632,0.189547
0.0335631,0.222936,0.189726
0.0326623,0.222149,0.189799
0.0317646,0.221219,0.189708
0.030991,0.220266,0.189528
0.0301545,0.219283,0.189397
0.0291464,0.218289,0.189423
0.0280314,0.217552,0.189805
0.0269308,0.217064,0.190429
0.0259654,0.216675,0.191065
0.0252418,0.216387,0.191559
0.0248666,0.216127,0.191675
0.0248329,0.215773,0.191327
0.0249132,0.215201,0.190703
0.0250939,0.214647,0.189965
0.0257898,0.214372,0.188939
0.0269829,0.214207,0.187548
0.028281,0.21393,0.185995
0.0294226,0.213512,0.18443
0.0302687,0.212903,0.182989
0.0310029,0.212202,0.181615
0.0319653,0.211675,0.180131
0.033188,0.211184,0.178406
0.034293,0.21035,0.176391
0.0352529,0.209102,0.174123
0.0364695,0.207992,0.17173
0.0379394,0.207209,0.169352
0.0393249,0.206242,0.166973
0.0404023,0.204845,0.1645
0.0411287,0.20298,0.161876
0.0414906,0.200734,0.159218
0.0413691,0.198053,0.156672
0.0408334,0.194923,0.154133
0.0401292,0.19162,0.151521
0.0392341,0.18818,0.148958
0.0381202,0.184715,0.146573
0.0369958,0.181353,0.144283
0.0359497,0.178094,0.142111
0.0349249,0.175106,0.140113
0.0340483,0.172587,0.138303
0.033439,0.170527,0.13675
0.033035,0.16874,0.135263
0.0325572,0.166976,0.133832
0.0317031,0.164988,0.132583
0.0303089,0.162613,0.131532
0.028442,0.159956,0.130725
0.0262328,0.157029,0.130008
0.0237846,0.153743,0.129165
0.0212347,0.150197,0.128239
0.0184718,0.146307,0.127193
0.0152912,0.141833,0.125932
0.0114474,0.136649,0.124588
0.0070245,0.131069,0.1234
0.00245643,0.12539,0.122285
-0.00204242,0.119698,0.12113
-0.00633072,0.114223,0.120023
-0.0104094,0.109016,0.118958
-0.0143799,0.103952,0.117918
-0.0182441,0.0990419,0.116939
-0.0221109,0.0942899,0.116084
-0.0258889,0.089728,0.115303
-0.0292714,0.0854655,0.114386
-0.0322918,0.0816339,0.113588
-0.035369,0.078291,0.113305
-0.0384494,0.0753322,0.113376
