Lead1,Lead2,Lead3
0,0,0
821797,958362,3431.71
1.34475e+06,1.56796e+06,5598.1
1.49957e+06,1.74825e+06,6226.23
1.55572e+06,1.81344e+06,6446.54
1.55072e+06,1.80733e+06,6408.71
1.52194e+06,1.77351e+06,6271.13
1.47664e+06,1.72051e+06,6071.42
1.42476e+06,1.65994e+06,5851.71
1.3687e+06,1.59457e+06,5618.11
1.31178e+06,1.52826e+06,5382.77
1.2551e+06,1.46223e+06,5150.71
1.19975e+06,1.39778e+06,4925.08
1.14629e+06,1.33553e+06,4707.75
1.09501e+06,1.27585e+06,4500.89
1.04614e+06,1.21897e+06,4304.17
999783,1.16502e+06,4116.78
955967,1.11401e+06,3938.91
914644,1.06588e+06,3770.28
875730,1.02055e+06,3610.78
839128,977900,3460.29
804737,937826,3318.58
772458,900207,3185.5
742178,864921,3060.77
713785,831835,2943.88
687170,800819,2834.17
662227,771751,2731.31
638855,744512,2634.89
616954,718989,2544.51
596431,695071,2459.84
577195,672653,2380.49
559162,651638,2306.15
559197,651680,2306.35
507925,591889,2092.34
433380,504982,1782.86
372253,433742,1530.67
316966,369333,1303.5
269741,314348,1111.63
228143,265939,944.565
192592,224578,802.27
161836,188796,678.787
135745,158436,574.15
113563,132621,485.36
94963.7,110975,410.44
79472.6,92941.4,347.762
66726.6,78099.9,296.026
56395.7,66062.5,253.548
48163.9,56464.1,219.441
41737.1,48973.2,193.136
36859.5,43291.5,173.517
33313.4,39170.5,159.749
30913.3,36393.8,151.175
29492.6,34761.5,147.051
28892,34093,146.752
28967.2,34221.6,149.659
29597.5,34999.4,155.021
30677,36302.6,162.456
32110.1,38023.1,171.625
33814,40060.7,181.896
35717,42330.1,193.019
37756.7,44755.5,204.53
39877.8,47269.9,216.141
42030.3,49817.2,227.726
44171.4,52348.9,238.871
46265.9,54825.4,249.719
48284.9,57213.9,260.327
50204.5,59485.1,270.515
52009.4,61620.3,280.052
53687.4,63604.2,288.719
55226.4,65420.2,296.439
56614.7,67058.7,303.299
57843.1,68511.4,309.538
58910.4,69774.7,315.097
59825,70855.4,319.718
60589.3,71754.5,323.335
61202.2,72471.5,326.007
61665.3,73011,327.9
61979.7,73376.2,329.089
62148.3,73568.4,329.554
62175.2,73592.6,329.266
62068.2,73457,328.108
61836.1,73170.5,326.067
61484.6,72740.5,323.214
61016.6,72171.9,319.58
60439.4,71471.7,315.223
59764.7,70646.5,309.961
58999.1,69703.5,303.617
58148.8,68655,296.472
57224.1,67516.8,288.789
56233,66301.4,280.793
55181.4,65015.8,272.693
54075.8,63667,264.353
52923,62265.6,255.988
51732.1,60825.2,247.678
50510,59352.4,239.309
49261.1,57849,231.149
47991.6,56319.4,222.944
46706.4,54771.7,214.533
45413.2,53217,206.072
44116.8,51660.5,197.778
42818,50103,189.71
41519.3,48548.2,181.805
40226.6,47000.7,174.046
38948.4,45467.9,166.24
37687.2,43953.2,158.329
36436.4,42450.7,150.408
35196,40963.4,142.704
33969.4,39497.5,135.466
32755.9,38052.3,128.595
31559.3,36629.6,121.922
30386.2,35235.8,115.378
29239.2,33873.8,109.016
28117.4,32543.6,103.012
27021,31248,97.5379
25951,29991,92.5804
24909.9,28772.3,87.9863
23896.2,27588.4,83.7295
22908.9,26442.2,79.8979
21953.1,25338.6,76.5423
21030.7,24276.2,73.4684
20136.3,23247.3,70.5193
19267.8,22248.9,67.7726
18427.8,21284.6,65.215
17616.1,20353.8,62.7553
16830.9,19454,60.3828
16068.6,18580.4,58.0823
15330.2,17732.7,55.8775
14618.6,16916.5,53.7499
13933.5,16132.6,51.6912
13275.4,15378.3,49.6924
12644,14652.2,47.6746
12038.1,13953.5,45.6082
11455.9,13281.1,43.5821
10895.5,12634,41.6348
10356.4,12010.4,39.7101
9837.85,11408.9,37.7742
9338.51,10829.6,35.8937
8858.67,10273.7,34.1452
8398.5,9740.45,32.4945
7957.39,9229.12,30.8893
7535.42,8738.52,29.3158
7131.43,8267.34,27.757
6744.38,7815.17,26.1982
6373.82,7381.99,24.6913
6018.09,6966.68,23.2185
5677.25,6568.51,21.7641
5352.94,6187.49,20.3785
5044.21,5823.27,19.0428
4750.29,5475.5,17.7149
4471.51,5144.33,16.41
4205.74,4828.57,15.1612
3950.98,4527.02,14.0327
3709.67,4240.14,12.929
3483.12,3966.39,11.677
3268.25,3703.96,10.3405
3062.8,3453.05,9.0941
2867.33,3214.62,7.95444
2682.54,2989.47,6.89773
2507.56,2777.18,5.96179
2341.56,2576.46,5.17236
2183.84,2386.45,4.53669
2033.75,2206.66,4.02366
1889.87,2035.55,3.63236
1750.56,1871.77,3.35779
1618.18,1716.94,3.14818
1495.74,1573.67,2.9653
1382.17,1442.04,2.80706
1276.77,1320.82,2.6619
1180.06,1209.8,2.51525
1091.78,1108.86,2.3923
1011.07,1017.03,2.30366
936.482,933.239,2.23899
867.239,856.511,2.2019
803.264,785.931,2.19625
744.114,720.58,2.2357
689.247,660.019,2.32969
638.612,604.366,2.45665
591.758,553.375,2.64493
547.875,506.359,2.9571
506.569,462.731,3.39031
467.737,422.462,3.89853
431.372,385.136,4.45719
397.268,350.206,5.05492
365.525,317.952,5.6461
336.069,288.469,6.22115
308.607,261.642,6.75825
283.061,237.095,7.21378
259.245,214.354,7.62604
236.629,193.075,8.015
214.953,172.955,8.42625
194.597,154.161,8.80756
175.869,137.367,9.04955
158.877,122.683,9.21037
143.609,109.696,9.33663
129.867,98.129,9.43334
117.536,87.8778,9.49565
106.032,78.3745,9.49738
94.7775,69.005,9.47779
84.2409,60.1226,9.47026
74.8736,52.1784,9.4739
66.4596,44.9135,9.49336
58.4376,37.9115,9.52042
50.5981,31.0374,9.54566
43.3367,24.5505,9.58831
37.0206,19.0087,9.64612
31.6095,14.5952,9.74639
26.9349,11.2065,9.82075
23.1074,8.97486,9.83418
20.3128,8.15638,9.85788
18.4674,8.73526,9.8573
17.3163,10.5624,9.82487
16.7764,13.6291,9.84746
16.8583,18.0793,10.0689
17.5631,23.9048,10.4872
18.8849,30.632,10.9839
20.7243,38.1331,11.5945
22.9127,46.0858,12.3022
25.3278,54.1433,13.0378
27.9553,62.4092,13.8024
30.7324,70.4431,14.4158
33.5473,77.8568,14.8326
36.2276,84.6779,15.1135
38.4017,90.9056,15.4709
39.7841,95.9132,15.9091
40.387,99.1413,16.3068
40.3323,100.496,16.2548
40.0117,100.577,16.0078
40.3209,101.079,15.781
42.7317,104.988,15.6605
49.1437,116.639,16.1503
61.2702,141.789,18.192
80.6344,187.164,23.4051
108.211,256.238,32.4267
144.982,351.216,45.8622
194.502,484.15,65.5363
258.22,662.648,95.1565
333.951,880.721,135.836
421.048,1140.97,183.15
519.276,1447.6,239.743
628.806,1799.85,308.349
749.136,2195.76,387.273
875.989,2620.94,473.703
1002.46,3055.04,564.318
1121.56,3482.22,658.568
1228.52,3885.09,752.114
1323.47,4257.41,843.235
1405.85,4597.49,932.975
1474.65,4902.11,1017.36
1531.7,5175.37,1096.55
1579.07,5422.48,1173.35
1617.68,5643.2,1246.51
1648.56,5837.66,1314.99
1673.06,6008.53,1378.78
1691.58,6157.09,1438.77
1704.12,6282.46,1495
1711.67,6383.38,1546.29
1715.53,6459,1587.29
1717.3,6514.36,1621.65
1717.94,6552.98,1650.84
1717.24,6573.15,1670.14
1714.77,6577.02,1681.55
1709.82,6566.72,1687.25
1701.89,6541.82,1687.58
1690.74,6502.13,1682.54
1676.58,6451.99,1673.86
1658.46,6395.11,1663.66
1633.49,6324.89,1653.68
1602.24,6240.44,1642.17
1567.46,6150.35,1625.76
1528.56,6048.22,1609.7
1484.3,5926.23,1591.84
1433.94,5785.57,1569.68
1377.61,5629.28,1546.15
1319.48,5474.52,1525.71
1265.38,5335.24,1509.92
1218.96,5208.13,1492.7
1181.35,5093.82,1473.72
1151.22,4991.4,1452.68
1128.96,4900.4,1427.18
1114.18,4820.47,1400.76
1104.27,4746.47,1373.66
1097.89,4676.51,1343.99
1095.28,4614.72,1313.75
1096.93,4565.2,1284.79
1102.09,4528.28,1257.7
1110.74,4503.34,1231.62
1123.85,4492.92,1206.78
1140.8,4500.01,1184.89
1160.25,4525.78,1171.16
1180.64,4565.25,1162.19
1200.34,4614.43,1156.42
1218.75,4673.63,1158.47
1235.26,4738.4,1166.4
1248.71,4802.87,1177.68
1258.18,4862.26,1191.05
1262.54,4910.73,1205.06
1260.5,4940.73,1217.49
1252.03,4946.37,1225.81
1236.6,4922.53,1226.41
1212.44,4863.53,1217.4
1179.23,4767.63,1201.27
1138.15,4638.3,1177.25
1090.46,4479.39,1145.14
1036.7,4290.91,1104.74
977.261,4071.48,1054.6
912.381,3818.34,993.113
843.295,3538.36,922.144
773.515,3251.1,848.481
706.705,2973.3,776.664
643.983,2711.97,708.579
585.549,2469.62,645.892
532.891,2250.11,589.158
486.683,2054.68,537.957
446.139,1880.02,491.547
410.195,1722.5,449.172
377.376,1578.33,410.146
346.937,1444.49,373.992
318.643,1320.47,340.711
291.92,1204.86,309.903
266.711,1096.54,280.989
243.22,995.906,254.193
221.385,903.119,229.754
201.385,818.084,207.466
183.124,740.46,187.275
166.338,669.673,169.061
151.123,605.281,152.636
137.244,546.784,137.852
124.524,493.422,124.546
113.11,444.962,112.621
103.03,401.481,101.83
94.1109,362.773,92.2364
86.1219,327.746,83.7845
78.9055,295.534,76.2069
72.4848,266.463,69.3944
66.8841,240.248,63.1097
61.86,216.23,57.3645
57.2804,194.553,52.3273
52.9941,175.117,47.966
48.8724,157.359,44.1235
44.857,140.826,40.556
40.8952,125.279,37.2651
36.9944,110.727,34.431
33.1185,97.2348,31.8462
29.3048,84.6091,29.4292
25.7549,72.9259,27.2455
22.6699,62.5416,25.2364
19.9105,53.1339,23.4209
17.3898,44.6741,21.8323
15.2831,37.5258,20.4225
13.608,31.4443,19.0541
12.2993,26.1873,17.6926
11.3119,21.7289,16.4818
10.5503,17.9505,15.3812
9.96995,14.7105,14.3386
9.62467,12.0009,13.4138
9.47584,9.88151,12.5604
9.42569,8.34839,11.7846
9.4248,7.28505,11.1255
9.45273,6.49566,10.6238
9.5027,5.97683,10.2461
9.55328,5.72426,9.9449
9.61746,5.58794,9.78967
9.69866,5.5107,9.74249
9.72614,5.51226,9.77511
9.62955,5.55876,9.8896
9.43566,5.5711,10.0449
9.2632,5.53645,10.2511
9.22828,5.49322,10.4719
9.30478,5.45594,10.684
9.45821,5.42135,10.8793
9.75281,5.4178,11.0747
10.1387,5.44087,11.2936
10.4769,5.45089,11.503
10.7589,5.44326,11.7255
11.0605,5.4106,12.0039
11.3039,5.33761,12.2957
11.4154,5.23734,12.5549
11.3751,5.07864,12.7789
11.1447,4.81859,12.9548
10.8331,4.50716,13.0635
10.5568,4.23356,13.1526
10.3671,4.06928,13.2179
10.2895,4.01096,13.2417
10.3345,4.07368,13.2317
10.4874,4.24617,13.1817
10.7633,4.52638,13.058
11.1291,4.90531,12.8345
11.6042,5.31452,12.5198
12.2459,5.70728,12.1009
13.0363,6.1146,11.5749
14.0251,6.71315,10.9886
15.2406,7.61736,10.3865
16.663,8.80711,9.74808
18.282,10.3456,9.05931
20.1007,12.1461,8.34057
22.1334,14.0474,7.58781
24.3899,16.0599,6.86007
26.864,18.2348,6.19935
29.4445,20.446,5.5836
32.1011,22.6037,5.07857
34.9418,24.7892,4.7001
37.9139,26.9129,4.40645
40.9959,28.8067,4.24818
44.2867,30.5599,4.24184
47.7058,32.2964,4.33101
51.0879,33.9043,4.49386
54.4113,35.3967,4.70769
57.8415,36.8966,4.95096
61.4662,38.4262,5.22646
65.2885,40.0069,5.55056
69.2581,41.5414,5.98935
73.2477,43.0002,6.492
77.2336,44.4094,6.96733
81.2254,45.7606,7.43158
85.2301,47.1667,7.86945
89.3775,48.7421,8.26576
93.8903,50.7461,8.62052
98.6316,53.2152,8.91336
103.189,55.7699,9.13783
107.351,58.3173,9.29996
111.144,60.9573,9.40993
114.553,63.4837,9.47117
117.496,65.7032,9.50127
119.905,67.5326,9.52497
121.793,68.9653,9.54706
123.241,70.0156,9.57267
124.279,70.6794,9.59927
124.856,71.0379,9.61921
124.843,71.0438,9.62265
124.289,70.6569,9.60878
123.415,70.0697,9.57848
122.189,69.3862,9.48634
120.418,68.5348,9.30627
118.283,67.6776,9.08956
115.895,67.1333,8.7554
113.278,66.9365,8.2948
110.65,66.9832,7.80936
108.099,67.3012,7.30288
105.65,67.9448,6.79861
103.42,69.1619,6.35958
101.478,71.1469,6.01187
99.5282,73.4836,5.73923
97.3851,75.7098,5.44759
95.0798,77.7974,5.16633
92.6472,79.8051,4.98091
90.0494,81.61,4.85929
87.1294,82.9563,4.81606
83.7736,83.8207,4.88284
79.8614,84.0361,5.02139
75.5523,83.5805,5.22663
71.2584,82.8962,5.55667
67.1327,81.9934,6.01869
63.1153,80.8056,6.57006
59.2465,79.6118,7.24601
55.57,78.6219,8.08706
52.1385,78.0755,9.18814
48.9464,78.0972,10.6424
45.9086,78.7267,12.4075
43.0453,80.0706,14.4027
40.4096,81.9527,16.5522
38.0523,84.2201,18.8073
35.9017,86.7749,21.185
33.8303,89.5688,23.6044
32.0076,92.7402,26.0021
30.6308,96.2603,28.3413
29.4788,99.7875,30.584
28.2724,102.887,32.8671
26.9056,105.313,35.2661
25.4449,107.25,37.8231
24.0205,108.87,40.5117
22.5928,110.115,43.2191
20.9414,110.771,46.0512
18.9516,110.695,48.9304
16.8866,110.291,51.7036
14.977,110.08,54.5232
13.2764,110.115,57.4112
11.734,110.354,60.3387
10.3381,110.831,63.2857
9.21326,111.718,66.2451
8.33537,113.047,69.1997
7.59482,114.752,72.222
6.93065,116.905,75.5263
6.34252,119.333,78.8972
5.86589,121.895,82.0519
5.49734,124.475,85.0948
5.23094,127.006,87.8848
5.01583,129.269,90.2974
4.81836,131.146,92.4526
4.6531,132.862,94.4481
4.48163,134.213,96.2162
4.24913,134.874,97.6183
3.985,135.054,98.8434
3.72535,135.032,100.043
3.46089,134.826,101.016
3.19038,134.282,101.82
2.85718,133.217,102.544
2.41832,131.65,103.263
1.95196,129.843,104.029
1.58925,128.125,104.651
1.38003,126.637,105.039
1.2597,125.223,105.115
1.19057,123.829,104.943
1.1743,122.467,104.751
1.18209,120.973,104.289
1.19509,119.272,103.452
1.21495,117.379,102.453
1.24712,115.296,101.327
1.30629,112.934,100.037
1.40826,110.152,98.4651
1.56138,107.095,96.7253
1.74589,103.856,94.8844
1.94349,100.297,92.8671
2.17143,96.3739,90.6136
2.44572,92.0128,87.9343
2.78152,87.3554,85.0341
3.20657,82.6617,82.2387
3.72793,77.9969,79.4248
4.31689,73.3531,76.6896
4.994,68.8933,74.1035
5.77946,64.5592,71.4614
6.58722,60.0174,68.5607
7.35053,55.3434,65.4872
8.04979,50.8211,62.5075
8.64172,46.4608,59.4778
9.15052,42.1769,56.2956
9.59702,38.0404,53.2101
9.99435,34.1683,50.2772
10.3512,30.5869,47.471
10.6653,27.2955,44.7594
10.9661,24.2944,42.0951
11.2781,21.5192,39.4684
11.6285,18.9625,36.8973
11.9391,16.6093,34.4142
12.1061,14.431,31.9377
12.1963,12.4152,29.3712
12.2769,10.6145,26.8734
12.3651,9.08585,24.6474
12.4795,7.81958,22.6385
12.6587,6.87944,20.6879
12.8981,6.38232,18.8591
13.1623,6.38009,17.2535
13.4176,6.76938,15.8034
13.5905,7.29126,14.4593
13.6779,7.88263,13.2411
13.7018,8.55829,12.1654
13.6451,9.28169,11.244
13.4437,10.0048,10.4617
13.055,10.655,9.75888
12.5075,11.1838,9.15633
11.8636,11.6257,8.64464
11.1331,12.0345,8.21338
10.2941,12.3446,7.80862
9.41497,12.5507,7.43035
8.57779,12.7457,7.14916
7.81635,12.9959,6.92113
7.18794,13.3303,6.728
6.70496,13.7608,6.56388
6.3799,14.3153,6.38218
6.19917,15.0743,6.19013
6.09315,16.007,6.04221
5.99041,17.0277,5.98685
5.86321,18.1203,6.03125
5.68142,19.1859,6.1848
5.41699,20.1604,6.4292
5.17235,21.0858,6.76801
5.05756,22.0132,7.23155
4.99818,22.9198,7.77846
4.93252,23.7178,8.33632
4.85513,24.345,8.83667
4.74846,24.7932,9.26823
4.56715,25.0372,9.64926
4.29126,24.9908,9.98239
3.93103,24.6127,10.2709
3.51025,23.8402,10.4283
3.13929,22.8794,10.4525
2.82935,21.9317,10.4296
2.53868,21.0264,10.3777
2.27586,20.1938,10.2936
2.09,19.4513,10.1515
1.99865,18.8383,9.96542
1.96182,18.3809,9.77728
1.94269,17.9898,9.57705
1.93744,17.6005,9.36421
1.94175,17.2926,9.19224
1.94232,17.0964,9.06041
1.94366,16.9449,8.90445
1.9787,16.828,8.73144
2.07947,16.772,8.59269
2.21202,16.7195,8.48481
2.31671,16.6019,8.39249
2.35767,16.3413,8.27925
2.45346,16.0264,8.09649
2.70176,15.8161,7.82926
3.03997,15.6762,7.49572
3.42465,15.5957,7.13693
3.80314,15.5464,6.75714
4.12346,15.4195,6.33171
4.3596,15.1667,5.8724
4.54446,14.8406,5.39161
4.69699,14.4835,4.91714
4.7999,14.1198,4.48908
4.8687,13.7403,4.10273
4.90995,13.2729,3.73258
4.90251,12.7414,3.36964
4.88525,12.2288,3.01681
4.89509,11.8676,2.72722
4.92148,11.6534,2.50796
4.96735,11.4858,2.33309
5.03603,11.3429,2.2064
5.11151,11.21,2.12303
5.19673,11.077,2.07079
5.34098,10.9594,2.04365
5.56729,10.8722,2.04946
5.84473,10.8318,2.11529
6.18522,10.8326,2.24421
6.64088,10.8431,2.43143
7.21363,10.8426,2.67869
7.81402,10.8201,2.93061
8.34499,10.7111,3.14898
8.75343,10.4559,3.33508
9.05816,10.106,3.51167
9.26564,9.70142,3.6672
9.35868,9.24767,3.76908
9.27231,8.67674,3.81957
9.01347,7.91422,3.81176
8.69738,7.03761,3.76029
8.40497,6.1785,3.69489
8.15304,5.39119,3.62
7.92088,4.73878,3.54665
7.73202,4.22388,3.47798
7.55996,3.76514,3.41204
7.39769,3.34814,3.35469
7.27149,2.96342,3.30124
7.16455,2.603,3.24558
7.08236,2.32861,3.21511
7.05913,2.18169,3.22702
7.06307,2.14433,3.25085
7.0582,2.1833,3.29184
7.03897,2.24899,3.36535
7.01023,2.29719,3.45181
6.97673,2.33326,3.56928
6.97825,2.3663,3.7473
7.03304,2.38213,3.95846
7.06958,2.37689,4.15945
7.03477,2.36318,4.31777
6.96994,2.35039,4.43052
6.8504,2.33063,4.48442
6.59929,2.30254,4.44221
6.21983,2.26435,4.3157
5.81349,2.21561,4.16224
5.46156,2.16552,4.00531
5.15383,2.13838,3.8431
4.88213,2.15319,3.67812
4.64189,2.17835,3.52986
4.43701,2.17555,3.42865
4.29847,2.15426,3.3796
4.2054,2.12605,3.37167
4.10367,2.07172,3.37837
3.97399,1.9768,3.38281
3.85624,1.8452,3.40037
3.7984,1.68994,3.44088
3.80415,1.53206,3.47119
3.87581,1.40676,3.48722
3.96718,1.30939,3.498
4.05544,1.22695,3.51035
4.17125,1.17073,3.53761
4.3194,1.13497,3.58408
4.52832,1.10732,3.63204
4.80627,1.09186,3.65951
5.0977,1.07878,3.65972
5.37931,1.0719,3.62136
5.66073,1.11466,3.5505
5.94432,1.21932,3.42398
6.20525,1.37656,3.21306
6.35084,1.55164,2.95307
6.36586,1.69783,2.68342
6.35569,1.84573,2.41932
6.34547,2.01868,2.16037
6.34924,2.23469,1.92057
6.41148,2.52303,1.71323
6.49826,2.84094,1.53147
6.55438,3.14505,1.38413
6.55308,3.41167,1.27617
6.49525,3.61195,1.20863
6.37545,3.75195,1.17086
6.22658,3.85503,1.14924
6.09149,3.93047,1.13826
5.96955,3.9699,1.12925
5.8615,3.98198,1.12506
5.76814,3.98229,1.14005
5.67789,3.97063,1.16648
5.59517,3.96343,1.20064
5.53751,3.96267,1.25095
5.50933,3.94301,1.31486
5.50059,3.91347,1.37077
5.51032,3.89446,1.41802
5.5151,3.88618,1.45888
5.50228,3.88027,1.48898
5.45818,3.87465,1.49846
5.34754,3.868,1.50665
5.19033,3.84853,1.58622
5.07061,3.80835,1.75718
5.03123,3.75062,2.00587
5.13089,3.65977,2.32906
5.39732,3.53194,2.70934
5.72992,3.37113,3.10498
6.20545,3.23313,3.52341
6.86306,3.14488,4.00154
7.5724,3.06338,4.45901
8.39638,3.02732,4.85912
9.34939,3.01729,5.2514
10.2036,2.91181,5.64106
10.911,2.71918,6.03603
11.5714,2.49392,6.47005
12.1856,2.26811,6.92058
12.7217,2.06168,7.34896
13.2077,1.86808,7.74446
13.6974,1.70902,8.09975
14.2454,1.62129,8.40064
14.8598,1.61824,8.65192
15.4962,1.66801,8.87546
16.0917,1.71917,9.08381
16.6375,1.75714,9.28303
17.1702,1.81577,9.44538
17.7127,1.91724,9.55597
18.2925,2.07168,9.63891
18.9569,2.27168,9.74143
19.7205,2.51249,9.87081
20.4904,2.7728,9.96688
21.1463,3.01571,10.0165
21.7413,3.25834,10.0436
22.3326,3.4974,10.0319
22.8555,3.68842,9.96163
23.2355,3.80974,9.83645
23.4732,3.88845,9.67341
23.5076,3.95146,9.47002
23.2872,3.9791,9.22282
22.9487,3.97594,8.97542
22.4947,3.94084,8.71881
21.8929,3.87999,8.4229
21.196,3.80477,8.15695
20.3147,3.66632,7.94095
19.2514,3.46675,7.73186
18.2339,3.29571,7.52986
17.3469,3.19622,7.35139
16.5143,3.15535,7.14028
15.7207,3.16275,6.87475
15.0258,3.22757,6.63419
14.4158,3.34093,6.44496
13.8449,3.47544,6.27492
13.269,3.62818,6.16166
12.6504,3.84447,6.13613
12.0239,4.17411,6.15693
11.4546,4.57126,6.17399
10.9327,4.96424,6.18997
10.409,5.35806,6.25191
9.8489,5.77284,6.3532
9.22735,6.22934,6.47852
8.52334,6.76987,6.59889
7.77198,7.397,6.66993
7.12241,8.13439,6.73832
6.69834,9.08177,6.84932
6.45213,10.2117,6.97146
6.27132,11.4312,7.08422
6.09853,12.653,7.18736
5.89905,13.7035,7.26189
5.69998,14.5878,7.27994
5.55728,15.4141,7.28122
5.47528,16.2691,7.31095
5.45849,17.2225,7.3338
5.56641,18.3404,7.34248
5.87722,19.7479,7.35271
6.40283,21.4537,7.37598
7.15758,23.4725,7.41941
8.1739,25.9236,7.48186
9.38492,28.7062,7.55706
10.8296,31.785,7.62168
12.5532,35.2395,7.69284
14.4937,38.9673,7.81626
16.666,42.907,7.94184
19.0051,47.0169,8.01927
21.363,51.1875,8.09827
23.7281,55.3795,8.18771
26.0609,59.4838,8.25284
28.2607,63.2747,8.27942
30.5076,66.7122,8.22823
32.836,69.9266,8.11079
35.0052,72.9327,7.96651
36.9067,75.6238,7.84706
38.5241,78.0831,7.79167
39.9136,80.4559,7.78031
41.1662,82.8432,7.86558
42.2772,85.1607,8.0384
43.1446,87.2324,8.26139
43.7387,89.1696,8.61655
44.1701,91.1071,9.09844
44.617,93.0969,9.60695
45.2174,95.3252,10.1012
45.9231,97.8005,10.6372
46.6243,100.322,11.2222
47.2802,102.708,11.7393
47.8595,104.884,12.2193
48.2971,106.736,12.6889
48.4989,108.078,13.0948
48.4682,108.891,13.4458
48.1967,109.163,13.7513
47.6106,108.804,14.0083
46.743,107.851,14.1991
45.5352,106.258,14.3251
43.9813,104.054,14.4348
42.2379,101.453,14.5011
40.2927,98.5088,14.4777
38.1729,95.2467,14.4287
36.0282,91.796,14.3591
33.8643,88.1972,14.2251
31.7352,84.5209,14.0362
29.7315,80.969,13.8434
27.6672,77.6645,13.7269
25.5173,74.5027,13.6543
23.4847,71.391,13.5506
21.6951,68.4314,13.3815
20.1811,65.5672,13.1312
18.871,62.6459,12.8306
17.639,59.5591,12.4608
16.4537,56.3774,12.0343
15.3944,53.2225,11.5566
14.4722,49.9991,10.9523
13.643,46.6701,10.235
12.8144,43.3045,9.49587
11.9283,39.9159,8.80012
10.9887,36.478,8.11611
10.0397,33.0669,7.40562
9.13072,29.7882,6.76005
8.24408,26.6721,6.17909
7.39072,23.8016,5.65499
6.62439,21.2054,5.20827
5.9374,18.9154,4.82212
5.32989,17.0208,4.51892
4.81894,15.4591,4.29426
4.39969,14.1957,4.16906
4.09675,13.3532,4.18019
3.9039,12.9854,4.29953
3.73279,12.8635,4.51664
3.53506,12.8281,4.88993
3.34058,12.9867,5.42918
3.14234,13.1949,6.0206
2.9444,13.3593,6.63825
2.74049,13.5113,7.34555
2.53465,13.6276,8.05961
2.32492,13.6893,8.6592
2.11884,13.7576,9.18931
1.95794,13.9674,9.71688
1.82352,14.3341,10.2121
1.69475,14.7724,10.6394
1.5677,15.2157,10.9944
1.46995,15.7725,11.33
1.41646,16.5179,11.707
1.40317,17.4531,12.1306
1.44508,18.5313,12.5849
1.49812,19.6643,13.0722
1.569,20.8831,13.6088
1.70915,22.3036,14.1556
1.94903,24.0242,14.6944
2.27126,26.0003,15.2793
2.65787,28.1567,15.9086
3.08043,30.3572,16.5437
3.47403,32.474,17.1501
3.83073,34.4978,17.7457
4.15701,36.4072,18.3416
4.4066,38.1082,18.9786
4.58501,39.7112,19.7221
4.78546,41.4093,20.4462
4.98931,43.0408,21.0461
5.12635,44.348,21.5716
5.22207,45.5102,22.1193
5.31812,46.694,22.668
5.42179,47.7104,23.096
5.57845,48.8371,23.4587
5.84376,50.3336,23.7584
6.21019,52.0628,23.9107
6.60217,53.8738,24.0308
6.92311,55.5996,24.2799
7.20168,57.3257,24.6145
7.54115,59.1538,24.9381
7.95984,60.8848,25.1846
8.37924,62.3639,25.3815
8.80492,63.7564,25.5784
9.27904,65.1041,25.7284
9.78209,66.2902,25.773
10.2717,67.191,25.7048
10.7223,67.7576,25.5314
11.1785,68.155,25.265
11.6002,68.4024,24.9202
11.953,68.3675,24.5317
12.2249,68.0098,24.1295
12.4247,67.3847,23.6642
12.6313,66.5865,23.1199
12.873,65.7363,22.5356
13.1868,64.9203,21.9315
13.572,64.1904,21.2968
14.0276,63.5321,20.6271
14.5781,62.9342,19.8673
15.2238,62.3634,18.9532
15.9,61.7158,18.0045
16.5997,61.0981,17.0902
17.4105,60.6529,16.1445
18.323,60.3176,15.1156
19.2946,60.0218,14.0175
20.2645,59.777,12.9223
21.2,59.4708,11.8685
22.0503,58.9229,10.8825
22.7705,58.2074,9.99323
23.4694,57.5233,9.15506
24.2973,57.076,8.31227
25.1347,56.6693,7.4749
25.799,55.9645,6.67223
26.2612,55.1199,5.99646
26.5568,54.3117,5.45117
26.6829,53.3903,4.9821
26.6075,52.232,4.56814
26.3822,50.9144,4.20139
26.1078,49.6228,3.89301
25.8243,48.5006,3.65737
25.5431,47.5082,3.47942
25.3561,46.6521,3.31675
25.2129,45.8925,3.16365
25.0687,45.178,3.01584
25.0103,44.593,2.87201
25.0528,44.1787,2.74255
25.215,43.8916,2.61991
25.3701,43.4871,2.50237
25.3948,42.9445,2.39655
25.3067,42.3859,2.30508
25.1304,41.722,2.20826
24.7648,40.7659,2.10537
24.1479,39.5851,2.01705
23.3393,38.2629,1.96417
22.3888,36.7021,1.9077
21.3364,34.8888,1.81348
20.2268,32.9566,1.70385
19.1243,31.0428,1.58879
18.0188,29.1473,1.47462
16.9033,27.2944,1.39873
15.8212,25.4899,1.33441
14.7373,23.7006,1.27169
13.5933,21.9058,1.26009
12.4776,20.1313,1.29879
11.4836,18.5064,1.35199
10.6102,17.0594,1.40034
9.88256,15.8171,1.44867
9.29242,14.8199,1.51802
8.82582,14.0305,1.61604
8.4552,13.3769,1.7231
8.11501,12.8111,1.81769
7.781,12.2694,1.85168
7.43972,11.7017,1.8455
7.04136,11.088,1.84478
6.62261,10.5096,1.8635
6.20394,9.96201,1.89931
5.70031,9.30766,1.94574
5.03736,8.47215,2.00005
4.20714,7.49373,2.06596
3.34493,6.59194,2.15991
2.5834,5.75585,2.27887
1.90272,4.89289,2.40342
1.26923,4.11698,2.5227
0.773072,3.57348,2.63789
0.478766,3.19842,2.72368
0.360046,2.87749,2.75285
0.335497,2.66227,2.77756
0.354235,2.58487,2.82375
0.394347,2.57167,2.86836
0.436944,2.5723,2.89989
0.470869,2.56403,2.91928
0.485599,2.52512,2.90529
0.488314,2.45815,2.86972
0.48782,2.35188,2.82565
0.495662,2.20244,2.73626
0.510793,2.09212,2.60537
0.522658,2.04256,2.47051
0.532097,2.00575,2.34208
0.536384,1.95383,2.21162
0.542833,1.86698,2.06367
0.545044,1.76362,1.90221
0.535663,1.68185,1.74513
0.528536,1.60125,1.60728
0.529908,1.53695,1.53173
0.532573,1.49743,1.4973
0.532612,1.45611,1.46718
0.529244,1.393,1.43011
0.527911,1.29045,1.38534
0.546027,1.17892,1.33741
0.572978,1.0655,1.28791
0.585148,0.939075,1.23602
0.594975,0.828193,1.16668
0.599405,0.760088,1.07211
0.585531,0.726215,0.964632
0.577686,0.739325,0.866921
0.58964,0.786641,0.781065
0.609625,0.83984,0.714684
0.634634,0.949226,0.668347
0.629712,1.0657,0.632477
0.591587,1.12188,0.608007
0.56044,1.13628,0.607061
0.565398,1.13562,0.622581
0.629415,1.16032,0.627274
0.775673,1.24096,0.626922
0.989686,1.37463,0.629295
1.229,1.5275,0.634111
1.44382,1.6619,0.640347
1.66162,1.80438,0.646557
1.95254,1.99906,0.653832
2.32191,2.25587,0.661451
2.78215,2.59618,0.66907
3.33877,2.97036,0.67775
3.8418,3.27184,0.686841
4.18,3.49214,0.693124
4.41506,3.66551,0.69246
4.59008,3.80624,0.686058
4.72642,3.92671,0.680611
4.85238,4.02996,0.676267
4.97885,4.13533,0.668868
5.11465,4.26693,0.654902
5.25998,4.4096,0.634276
5.42324,4.56567,0.608697
5.60202,4.72478,0.579187
5.79009,4.87191,0.549562
5.97926,5.00337,0.521968
6.15652,5.09516,0.496999
6.27784,5.09054,0.476281
6.3176,4.99429,0.452931
6.31415,4.87032,0.427967
6.28795,4.72091,0.404214
6.27046,4.59436,0.380738
6.27349,4.54007,0.360802
6.27019,4.52897,0.33457
6.2292,4.53289,0.312107
6.13521,4.51147,0.312144
5.9812,4.43378,0.322191
5.77127,4.30573,0.34908
5.54145,4.15777,0.386682
5.35126,4.02142,0.418456
5.20384,3.88156,0.448375
5.04871,3.72506,0.465701
4.9092,3.59691,0.466069
4.74495,3.46825,0.460378
4.50405,3.31675,0.451608
4.3792,3.26957,0.442022
4.47272,3.38427,0.436123
4.71087,3.65373,0.431761
5.05476,4.0921,0.430753
5.40976,4.59375,0.43712
5.65925,5.0049,0.452727
5.81917,5.34226,0.476111
5.92394,5.67032,0.513824
5.94282,5.95399,0.563606
5.87401,6.14825,0.616957
5.77757,6.3207,0.677541
5.67518,6.49995,0.73832
5.56381,6.65393,0.791729
5.46872,6.83873,0.844414
5.42347,7.08456,0.899157
5.42679,7.34768,0.967486
5.44195,7.57947,1.04919
5.45623,7.79702,1.13246
5.4763,8.04296,1.22361
5.50569,8.31065,1.32672
5.5281,8.58959,1.43948
5.54787,8.89273,1.55601
5.56221,9.16683,1.67595
5.55908,9.37432,1.79752
5.55295,9.56585,1.91016
5.54389,9.77567,2.01364
5.51827,10.054,2.13889
5.45474,10.3849,2.29297
5.32216,10.6772,2.48046
5.09538,10.9004,2.69303
4.82799,11.1333,2.92045
4.56075,11.4625,3.19738
4.23783,11.8385,3.5288
3.85998,12.1943,3.89251
3.44617,12.5031,4.27264
2.99886,12.7747,4.69297
2.57947,13.0611,5.16922
2.27532,13.5026,5.6526
2.06425,14.0533,6.14114
1.88974,14.5207,6.61912
1.75797,14.9582,7.0513
1.67132,15.4198,7.48054
1.60321,15.8659,7.90317
1.53744,16.2953,8.32474
1.467,16.6667,8.74616
1.39242,16.9312,9.11698
1.32244,17.1784,9.45404
1.28366,17.5352,9.79136
1.28738,18.028,10.1208
1.30132,18.4973,10.4283
1.30076,18.8278,10.6893
1.28739,19.1141,10.9205
1.28253,19.424,11.1497
1.28498,19.7443,11.3827
1.29286,20.1256,11.6509
1.32144,20.6349,11.9545
1.37064,21.2515,12.2663
1.43368,21.8918,12.549
1.48348,22.4812,12.8353
1.51397,23.0583,13.184
1.54882,23.7124,13.5476
1.60655,24.4531,13.9132
1.67815,25.2049,14.292
1.73068,25.8688,14.6485
1.73811,26.3272,14.9559
1.71387,26.5705,15.2206
1.67727,26.7117,15.477
1.63359,26.7821,15.6772
1.59638,26.7835,15.761
1.56607,26.6483,15.7554
1.54121,26.4115,15.6661
1.54198,26.2706,15.5209
1.57203,26.1697,15.3699
1.64091,26.1021,15.1752
1.7714,26.1907,14.9493
1.94605,26.3612,14.7079
2.14661,26.5905,14.4498
2.38814,26.9002,14.2027
2.62867,27.0877,13.9313
2.80342,27.0065,13.6158
2.90892,26.6919,13.2756
2.98825,26.3142,12.919
3.08822,25.977,12.5685
3.1924,25.594,12.2177
3.30665,25.1904,11.8547
3.49565,24.8947,11.4912
3.84681,24.8955,11.1114
4.45154,25.3792,10.7444
5.36923,26.4122,10.4251
6.66447,28.2149,10.2197
8.5171,31.3455,10.2142
10.9932,36.4197,10.4523
13.8995,43.4156,11.0701
17.0252,51.6775,12.0376
20.001,59.972,13.1192
22.6808,67.874,14.2752
25.1606,75.5332,15.4769
27.3911,82.8031,16.6869
29.5034,89.7858,17.8502
31.4753,95.9502,18.7552
33.1865,101.08,19.2386
34.8112,105.834,19.735
36.317,110.453,20.4987
37.488,114.24,21.1977
38.1612,116.512,21.652
38.3062,117.117,21.8195
38.1461,116.457,21.7327
38.1919,115.693,21.4971
39.324,117.164,21.4125
43.0684,124.642,21.9754
51.351,143.992,25.1899
66.0873,182.132,32.3316
88.095,242.612,41.7085
118.499,328.585,55.3939
162.06,453.935,76.1356
221.742,626.995,105.055
295.709,841.959,141.402
383.412,1102.36,186.858
484.025,1410.98,243.469
595.168,1763.59,310.626
716.334,2157.68,390.378
844.782,2579.48,478.66
973.069,3010.12,567.541
1093.84,3433.48,658.318
1203.01,3834.3,749.383
1300.91,4209.21,838.278
1386.83,4555.13,924.605
1460.18,4870.13,1008.12
1523.03,5158.44,1089.26
1577.23,5423.33,1167.93
1623.5,5664.79,1243.69
1662.43,5883.29,1316.14
1694.6,6079.91,1385.37
1720.09,6254.95,1451.61
1739.12,6407.13,1514.27
1751.97,6533.58,1571.94
1759.3,6631.37,1622.61
1763.12,6705.57,1666.19
1764.91,6759.64,1701.69
1764.99,6791.27,1727.11
1763.7,6803.66,1743.2
1760.77,6800.2,1750.95
1755.54,6780.36,1752.01
1747.52,6743.52,1746.44
1737.23,6693.82,1736.99
1724.75,6635.61,1724.36
1706.76,6561.6,1708.14
1681.16,6469.17,1688.98
1649.11,6365.36,1668.95
1608.58,6240.54,1646.1
1558.7,6088.5,1618.23
1502.39,5916.08,1587.79
1440.7,5729.43,1553.48
1376.46,5543.93,1518.92
1314.85,5366.68,1489.6
1259.7,5195.71,1458.92
1212.18,5033.24,1424.86
1170.5,4876.79,1388.64
1135.6,4729.36,1350.33
1108.75,4593.79,1309.84
1088.35,4468.38,1267.79
1072.83,4352.06,1225.11
1062.31,4247.26,1182.41
1057.3,4157.58,1140.44
1057.35,4083.47,1100.25
1061.84,4024.51,1062.13
1070.78,3982.61,1026.4
1084.61,3961.41,994.422
1102.78,3963.75,968.117
1123.14,3984.13,947.592
1143.83,4018.78,933.855
1164,4068.85,928.69
1182.55,4128.78,931.148
1198.15,4191.27,939.645
1209.54,4251.13,950.494
1215.72,4303.19,962.683
1215.77,4340.93,975.169
1208.52,4356.97,985.243
1192.51,4345.03,990.694
1167.13,4299.97,989.817
1133.15,4221.12,981.551
1093.24,4115.16,966.416
1049.09,3985.58,944.556
999.942,3829.51,914.103
945.296,3643.44,874.263
885.225,3426.05,825.501
821.783,3188.6,770.284
758.46,2948.75,713.863
698.489,2720.01,659.805
643.621,2508.82,609.35
593.97,2316.56,563.074
549.057,2143.15,521.476
508.422,1986.23,483.7
471.677,1843.58,448.834
437.771,1712.46,416.689
405.522,1589.24,387.297
374.917,1472.65,359.839
346.313,1362.35,333.427
319.346,1257.17,307.966
293.577,1156.72,283.654
269.135,1061.76,260.75
246.015,972.66,239.368
224.367,889.425,219.666
204.339,812.295,201.72
185.989,741.637,185.287
169.5,677.919,170.547
154.867,620.819,157.432
141.782,569.101,145.573
129.878,521.926,135.049
119.138,479.261,125.91
109.579,440.877,118.115
100.916,406.461,111.586
93.0116,375.218,105.911
85.7704,346.272,100.722
79.0435,319.436,95.8257
72.9627,294.933,91.3533
67.3573,272.585,87.4409
62.0535,251.785,83.9792
57.1142,232.589,80.9315
52.5136,214.725,78.1436
48.1663,197.565,75.4678
44.0036,181.178,72.999
40.0251,165.584,70.6594
36.1057,150.464,68.2681
32.1469,135.732,65.7183
28.2206,121.623,63.1452
24.3997,108.213,60.7266
20.8087,95.5527,58.3219
17.4833,83.6146,55.8158
14.4589,72.2766,53.1787
11.895,61.8076,50.5345
9.75272,52.4447,48.0789
7.99643,44.2713,45.8392
6.8555,37.4866,43.7426
6.3542,31.8643,41.6153
6.38531,27.2042,39.4768
6.76429,23.2949,37.4469
7.30488,19.7597,35.4424
8.03082,16.877,33.5549
8.94387,14.8779,31.8156
10.0016,13.4273,30.0777
11.2038,12.3888,28.2748
12.4858,11.6168,26.3128
13.7504,10.7751,24.192
14.9375,9.94663,22.0687
16.1334,9.3497,20.086
17.3153,8.89257,18.4361
18.4856,8.38089,16.994
19.6233,7.75032,15.6462
20.6545,7.15337,14.3948
21.6292,6.56529,13.1485
22.5355,5.99903,12.0228
23.3203,5.64328,11.0881
23.8307,5.44565,10.2631
24.0119,5.32467,9.58498
23.9482,5.27064,9.15412
23.7624,5.2733,8.95354
23.602,5.32661,8.90955
23.5092,5.40367,8.93488
23.4587,5.50618,9.01422
23.4355,5.6384,9.16179
23.429,5.79299,9.33285
23.4297,5.96546,9.53845
23.4199,6.16315,9.75845
23.3714,6.42844,9.90326
23.2832,6.82658,9.99497
23.1897,7.35513,9.98852
23.0384,7.8866,9.85237
22.8369,8.38943,9.64224
22.7392,8.93318,9.40159
22.7957,9.55247,9.14279
23.0541,10.2173,8.90397
23.6388,10.883,8.7423
24.4717,11.5947,8.64759
25.5002,12.3656,8.64981
26.9325,13.2726,8.68719
28.7851,14.4431,8.67621
30.9384,15.8161,8.66871
33.4549,17.3348,8.69832
36.4229,19.0103,8.75218
39.8338,20.7686,8.84795
43.5667,22.5544,9.05544
47.7254,24.5118,9.3341
52.5559,26.7296,9.61923
57.9977,29.1484,10.0665
63.8845,31.7129,10.661
70.1497,34.2639,11.2957
76.743,36.6941,12.0376
83.6003,39.0429,12.8403
90.4813,41.3364,13.6568
97.2836,43.657,14.4869
104.347,46.1302,15.3202
111.767,48.7804,16.1331
119.399,51.5877,16.9238
127.104,54.4014,17.8
134.481,56.9453,18.8064
141.562,59.2838,19.7659
148.459,61.5219,20.6244
155.107,63.5562,21.5229
161.495,65.3526,22.5318
167.374,66.9056,23.5886
172.748,68.2305,24.654
177.738,69.3627,25.7242
182.253,70.3836,26.7179
186.254,71.3506,27.6059
189.81,72.2249,28.4376
192.758,72.8545,29.0935
195.024,73.2515,29.6237
196.781,73.5169,30.0926
197.845,73.5856,30.3975
198.097,73.5008,30.5006
197.556,73.3082,30.4075
196.418,73.0661,30.1563
194.862,72.8047,29.7529
192.688,72.3664,29.2185
189.783,71.7016,28.6243
186.186,70.8429,27.8462
182.082,69.7883,26.9244
177.653,68.6918,26.0095
173.064,67.7579,24.9718
168.558,67.1022,23.8398
164.37,67.0073,22.6857
160.384,67.5169,21.535
155.996,68.0698,20.4283
151.135,68.4534,19.3798
145.936,68.6096,18.4017
140.325,68.4644,17.3613
134.705,68.2679,16.2121
129.076,67.9162,15.2013
123.274,67.2224,14.3253
117.363,66.3557,13.4471
111.393,65.4297,12.5188
105.601,64.5123,11.6001
99.9837,63.7315,10.7772
94.4146,63.0813,10.0544
88.9273,62.4185,9.48672
83.4184,61.6025,9.03622
77.8583,60.6798,8.64332
72.5341,60.0081,8.46368
67.4804,59.6469,8.5215
62.5743,59.438,8.81937
58.0137,59.4902,9.40909
53.8941,59.7368,10.232
50.1335,60.131,11.2976
46.6007,60.9244,12.7201
43.2775,62.3226,14.5898
40.1981,64.206,16.8616
37.2231,66.3004,19.3852
34.3489,68.4992,22.1581
31.6844,70.7263,25.1025
29.2197,72.8588,28.073
26.8124,74.7178,31.0455
24.2503,76.1302,34.0076
21.4492,76.8524,37.0296
18.5697,76.912,40.0166
15.8587,76.7334,42.9354
13.2848,76.4278,45.9814
10.8606,76.0619,49.1009
8.80699,75.7784,52.184
7.11208,75.67,55.3001
5.69793,75.9676,58.5292
4.56409,76.6751,61.9091
3.64892,77.6977,65.3795
2.92205,79.1233,68.9008
2.4232,80.9623,72.4254
2.06396,83.101,75.8549
1.78928,85.5126,79.4295
1.58486,88.3568,83.2029
1.44438,91.6306,86.9456
1.35931,95.0078,90.6511
1.29742,98.0619,94.2778
1.2405,100.698,97.8436
1.18069,103.027,101.349
1.12551,104.992,104.713
1.09955,106.564,107.91
1.10502,107.835,110.937
1.14217,108.556,113.759
1.1931,108.487,116.199
1.2451,107.92,118.126
1.32553,107.063,119.719
1.44005,105.958,120.999
1.58308,104.794,122.009
1.7371,103.773,122.933
1.8745,103.017,123.819
2.00113,102.53,124.649
2.11995,102.171,125.344
2.21604,101.799,126.131
2.30281,101.454,127.023
2.39827,101.12,127.56
2.47275,100.851,127.883
2.51774,100.694,128.176
2.57053,100.501,128.323
2.64117,100.05,128.225
2.69916,99.4106,127.813
2.73095,98.6902,127.185
2.76373,97.8296,126.42
2.82907,96.7366,125.681
2.92839,95.3337,125.104
3.0122,93.7231,124.177
3.09321,91.6627,122.77
3.2318,88.9917,121.349
3.45472,86.0349,119.921
3.70312,83.0511,118.241
3.97296,80.0529,116.257
4.24009,76.9801,113.929
4.40557,73.8695,111.082
4.46124,70.8624,107.798
4.45212,67.8992,104.224
4.40898,64.9874,100.353
4.37463,62.1448,96.3133
4.37793,59.2347,92.2969
4.41074,56.3536,88.2661
4.45781,53.6056,84.2618
4.50335,50.9675,80.3547
4.5535,48.3899,76.4661
4.6349,45.8253,72.583
4.75968,43.2491,68.7805
4.90877,40.7139,65.091
5.07721,38.2139,61.3496
5.22909,35.7044,57.5429
5.3391,33.2744,53.9324
5.42692,30.889,50.4501
5.50113,28.5975,47.0227
5.53113,26.4265,43.693
5.51107,24.3508,40.4737
5.487,22.3349,37.4061
5.47386,20.3137,34.4509
5.45551,18.3145,31.5711
5.39356,16.3616,28.6313
5.29606,14.4376,25.5405
5.22201,12.4348,22.5576
5.15322,10.5046,19.7733
5.01737,8.89297,17.0116
4.79449,7.52007,14.2745
4.54552,6.3509,11.7668
4.26919,5.45281,9.52165
3.98954,4.79362,7.58509
3.80593,4.41567,6.15433
3.72716,4.29109,5.1794
3.70971,4.33618,4.5161
3.713,4.56399,4.06873
3.70045,5.01949,3.77656
3.67184,5.69185,3.62049
3.6426,6.52435,3.55728
3.61499,7.41954,3.54977
3.59989,8.35856,3.61537
3.59753,9.34289,3.75177
3.58135,10.2532,3.92983
3.50463,11.0962,4.13962
3.32786,11.7481,4.38311
3.09518,12.1636,4.66335
2.86966,12.495,4.99316
2.67265,12.8321,5.34297
2.50781,13.1569,5.65189
2.35546,13.4217,5.90542
2.23299,13.7401,6.12414
2.1701,14.1673,6.35008
2.14458,14.6705,6.584
2.17376,15.2672,6.81829
2.28452,16.0101,7.05993
2.50401,16.9523,7.30633
2.81015,18.0824,7.56841
3.23076,19.5025,7.86517
3.79005,21.1982,8.18167
4.41,22.9934,8.47342
5.07797,24.9327,8.74195
5.76292,26.9484,8.98711
6.37793,28.7754,9.18679
6.96399,30.4499,9.31235
7.53449,31.9443,9.39001
8.02036,33.1865,9.47892
8.39804,34.1613,9.53982
8.64788,34.847,9.57842
8.79764,35.2504,9.60426
8.84561,35.3547,9.6124
8.77884,35.2009,9.62949
8.65236,34.846,9.63122
8.47922,34.308,9.57289
8.26731,33.5812,9.46817
8.06113,32.8288,9.37838
7.89044,32.0948,9.24468
7.79899,31.4416,9.04725
7.81876,30.9117,8.83356
8.01703,30.4761,8.59126
8.35708,30.0868,8.34969
8.74464,29.7233,8.16843
9.12008,29.3963,8.05617
9.46782,29.0233,8.00196
9.85491,28.5701,8.00214
10.3281,28.0526,8.07995
10.7386,27.4309,8.19268
10.9957,26.6395,8.31009
11.1275,25.6545,8.45156
11.1889,24.4942,8.59427
11.2162,23.0266,8.71401
11.1612,21.2513,8.82254
11.0665,19.3444,8.9287
10.962,17.2944,9.00589
10.7963,15.1699,9.04444
10.6478,13.1854,8.98561
10.5158,11.2888,8.84008
10.3302,9.44936,8.66192
10.1231,7.75102,8.45103
9.97755,6.29843,8.23481
9.92649,5.11132,7.99824
9.90416,4.12459,7.74832
9.91636,3.34681,7.49684
9.98384,2.74264,7.2338
10.0671,2.2923,6.99559
10.1319,1.97753,6.79068
10.1742,1.79445,6.62749
10.191,1.67935,6.48323
10.1875,1.57286,6.39488
10.1894,1.54039,6.37467
10.1492,1.58195,6.37541
9.97296,1.58874,6.39362
9.68551,1.53612,6.41097
9.37752,1.46362,6.4199
9.10606,1.40639,6.41244
8.86005,1.3756,6.367
8.56965,1.35245,6.2907
8.27273,1.32674,6.21696
8.10857,1.31161,6.2267
8.05145,1.31277,6.32776
8.02103,1.32241,6.41395
7.98327,1.32906,6.44669
7.85721,1.33531,6.46143
7.64848,1.34596,6.44929
7.438,1.34821,6.36652
7.17723,1.34373,6.22811
6.90451,1.33788,6.08173
6.66021,1.32891,5.99766
6.448,1.30439,6.03151
6.27579,1.28472,6.19437
6.10887,1.327,6.45422
5.93265,1.39618,6.80256
5.78241,1.42794,7.22794
5.71775,1.44995,7.70597
5.72587,1.45527,8.18867
5.77018,1.42679,8.62604
5.85092,1.38003,9.08663
5.99812,1.33048,9.57675
6.20456,1.27786,10.0041
6.42918,1.22458,10.4079
6.68286,1.17809,10.8024
6.97108,1.12777,11.1429
7.25749,1.08816,11.4377
7.53091,1.069,11.7079
7.78862,1.06034,11.9777
7.99497,1.06626,12.2449
8.12997,1.09356,12.5454
8.21696,1.13864,12.9061
8.2565,1.2048,13.2316
8.17208,1.31052,13.5027
7.96999,1.44611,13.6994
7.73748,1.58828,13.7734
7.48102,1.76116,13.8297
7.20361,1.97632,13.9068
6.92988,2.19756,13.9685
6.68833,2.41018,14.0492
6.44244,2.63148,14.1981
6.2053,2.85255,14.4069
6.01166,3.06575,14.6026
5.83996,3.24997,14.7801
5.64778,3.40029,14.8931
5.46376,3.52541,14.8594
5.32997,3.60535,14.7055
5.2209,3.66536,14.4331
5.1041,3.70942,14.0518
4.95676,3.72769,13.5961
4.7851,3.75582,13.1251
4.652,3.8644,12.6938
4.59629,4.08826,12.2358
4.57684,4.33639,11.7478
4.54714,4.51532,11.3108
4.49021,4.60251,10.892
4.43378,4.64185,10.4847
4.38825,4.66784,10.1564
4.34325,4.6769,9.90574
4.26723,4.66872,9.71165
4.17745,4.66341,9.56958
4.125,4.65995,9.51508
4.11746,4.66531,9.54086
4.15221,4.67484,9.57574
4.25721,4.66943,9.67762
4.40455,4.66091,9.86679
4.54978,4.66763,10.1258
4.71591,4.67572,10.4782
4.94189,4.65198,10.9028
5.23845,4.58306,11.3842
5.56205,4.52602,11.9372
5.91131,4.4776,12.5379
6.41606,4.36248,13.1901
7.12235,4.19179,13.8643
7.95454,4.00296,14.5915
8.88806,3.82618,15.3539
9.86772,3.67571,16.0879
10.8091,3.53763,16.845
11.77,3.38595,17.6567
12.7975,3.2039,18.5316
13.824,3.04766,19.4643
14.9008,2.93772,20.4376
16.0397,2.84056,21.4272
17.0634,2.68023,22.3644
17.8614,2.41429,23.2751
18.4577,2.13046,24.1838
18.932,1.93197,25.0624
19.3478,1.84405,25.9273
19.6608,1.82868,26.7643
19.8364,1.87188,27.5484
19.9325,1.97084,28.2555
19.9718,2.14021,28.9291
19.907,2.42752,29.5974
19.7582,2.82468,30.1745
19.5749,3.27688,30.5941
19.3617,3.7825,30.923
19.1015,4.34863,31.1944
18.821,4.92992,31.3728
18.5487,5.47052,31.4694
18.2755,5.96134,31.4956
18.0007,6.39399,31.4578
17.7052,6.77478,31.3487
17.3583,7.11778,31.0968
16.9429,7.53234,30.5937
16.3774,8.13925,29.9105
15.6232,8.90953,29.2595
14.7564,9.80783,28.6989
13.7811,10.767,28.2682
12.7564,11.7521,27.991
11.7868,12.7847,27.7605
10.8299,13.8628,27.5364
9.82316,15.0814,27.3864
8.83021,16.503,27.3477
7.82569,18.132,27.3309
6.80713,19.953,27.2586
5.92295,21.9362,27.1981
5.26093,24.0602,27.0884
4.82521,26.2402,26.9055
4.53206,28.4132,26.7229
4.34361,30.4644,26.4754
4.329,32.4388,26.1163
4.52623,34.4434,25.6516
4.84166,36.3141,25.1511
5.24014,38.0002,24.5939
5.75972,39.5394,23.9476
6.28537,40.8236,23.2909
6.70653,41.7152,22.6463
6.98026,42.1403,21.9817
7.17099,42.2117,21.2561
7.3446,42.0992,20.4646
7.52494,41.9457,19.6293
7.74949,41.8564,18.774
8.04893,41.89,17.9047
8.41591,42.0699,17.055
8.88824,42.3378,16.2792
9.51306,42.6208,15.6834
10.2137,42.8929,15.2002
10.9715,43.1707,14.6674
11.8309,43.449,14.0419
12.8187,43.7572,13.298
13.9108,44.0903,12.4731
15.1011,44.4333,11.6441
16.3202,44.742,10.8158
17.4589,44.7881,9.92705
18.4838,44.5035,8.93452
19.4093,43.956,7.91659
20.2572,43.1795,6.963
20.9662,42.1745,6.0711
21.5112,40.9404,5.2625
21.928,39.5643,4.53491
22.2748,38.1191,3.83838
22.5518,36.7157,3.21102
22.6809,35.3031,2.7
22.6443,33.7683,2.29272
22.5096,32.2983,1.94214
22.3288,30.9363,1.62499
22.0851,29.5686,1.34227
21.8361,28.3099,1.07115
21.6878,27.3328,0.834325
21.6918,26.7429,0.650436
21.7457,26.4391,0.525178
21.7672,26.2228,0.445839
21.7309,25.9507,0.378669
21.583,25.5574,0.329889
21.3273,25.0765,0.291302
20.9918,24.5113,0.253313
20.5685,23.859,0.226147
20.0344,23.1288,0.20822
19.3925,22.2821,0.194515
18.6597,21.2895,0.181755
17.8213,20.2024,0.172703
16.8771,19.1028,0.180585
15.8668,18.0455,0.209831
14.8037,17.0117,0.248936
13.7534,16.0361,0.293014
12.8048,15.2115,0.331575
11.9268,14.444,0.360881
11.0576,13.6373,0.386138
10.1377,12.7589,0.407651
9.25327,11.9033,0.431224
8.46373,11.178,0.457583
7.72914,10.56,0.486867
7.05873,10.0469,0.526008
6.48347,9.64836,0.56742
5.98919,9.3293,0.600126
5.54538,9.03883,0.620045
5.15834,8.74678,0.629441
4.7987,8.44953,0.633915
4.48022,8.12686,0.634259
4.21724,7.77776,0.633094
3.94995,7.41708,0.634322
3.66909,7.03106,0.633968
3.41635,6.63643,0.633359
3.22208,6.28682,0.641737
3.08948,6.02916,0.660754
3.02108,5.86663,0.692794
2.98447,5.72275,0.74047
2.93721,5.57742,0.808943
2.88054,5.46265,0.889102
2.81226,5.34264,0.963154
2.75515,5.23201,1.0302
2.72029,5.16113,1.09142
2.68907,5.08084,1.154
2.64261,4.94545,1.20939
2.55872,4.73879,1.24562
2.42355,4.48631,1.27224
2.24574,4.17008,1.28114
2.04302,3.80095,1.27099
1.87362,3.49845,1.26232
1.75373,3.29841,1.26544
1.705,3.20453,1.27012
1.68233,3.1419,1.26803
1.62933,3.03954,1.27141
1.56678,2.91909,1.27311
1.4888,2.77093,1.27362
1.37489,2.5794,1.30317
1.24431,2.39249,1.36797
1.11158,2.27232,1.44788
0.985907,2.21756,1.52449
0.895864,2.2285,1.58395
0.837837,2.34058,1.63562
0.81309,2.55106,1.70015
0.853613,2.88242,1.77587
0.95465,3.33209,1.86171
1.09646,3.87327,1.96007
1.26481,4.54217,2.07814
1.47044,5.36068,2.22209
1.73015,6.32355,2.37082
2.00389,7.37926,2.51798
2.27056,8.46259,2.66838
2.55021,9.59407,2.84368
2.86696,10.8357,3.05028
3.2207,12.1261,3.2692
3.58333,13.4341,3.50506
3.928,14.7939,3.75992
4.25707,16.1391,4.0375
4.58786,17.4799,4.33555
4.92803,18.8266,4.645
5.27948,20.2125,4.98909
5.64705,21.7236,5.39107
6.02418,23.3281,5.82493
6.42241,25.0133,6.27326
6.81505,26.721,6.72577
7.18629,28.3984,7.17577
7.64658,30.2538,7.63368
8.244,32.3877,8.11665
8.89488,34.639,8.61473
9.54967,36.9039,9.06276
10.2085,39.1942,9.49698
10.8365,41.4489,9.95539
11.3858,43.5332,10.433
11.8594,45.4467,10.9311
12.2486,47.1781,11.4036
12.5469,48.6462,11.8482
12.7673,49.8926,12.2785
12.9866,51.083,12.6801
13.2674,52.3627,13.067
13.5657,53.6421,13.4221
13.8029,54.7112,13.7137
13.9268,55.4264,13.9501
13.955,55.8887,14.1713
13.9312,56.2606,14.407
13.9016,56.5798,14.6155
13.8515,56.8089,14.7724
13.7555,56.8458,14.8847
13.6184,56.6883,14.9617
13.4611,56.4149,15.0068
13.3278,56.1497,15.0029
13.2154,55.8878,14.9574
13.1078,55.5926,14.8957
13.001,55.24,14.8018
12.9178,54.8883,14.67
12.968,54.8471,14.5594
13.1801,55.0801,14.4707
13.4454,55.321,14.3607
13.6541,55.4596,14.2304
13.6495,55.1427,14.0784
13.4313,54.3279,13.8761
13.125,53.2782,13.6149
12.7431,52.0109,13.3422
12.2628,50.405,13.0152
11.7101,48.5248,12.6361
11.157,46.5681,12.2454
10.6436,44.623,11.8511
10.1902,42.7945,11.4855
9.80868,41.1924,11.1396
9.48461,39.7205,10.8009
9.13546,38.2009,10.4676
8.69999,36.5092,10.1133
8.21628,34.7288,9.77126
7.7458,33.0608,9.48569
7.3368,31.6658,9.23845
7.02359,30.478,8.96313
6.79386,29.344,8.61648
6.59289,28.1949,8.22857
6.43885,27.0493,7.83467
6.39655,26.1153,7.45885
6.44232,25.3779,7.09201
6.52914,24.6404,6.7188
6.59008,23.7894,6.36291
6.58915,22.8476,6.03456
6.54199,21.8648,5.71427
6.45658,20.8663,5.40766
6.31484,19.7367,5.10841
6.04342,18.2204,4.76806
5.65555,16.4258,4.38236
5.24614,14.6557,4.01288
4.89695,13.021,3.67086
4.65884,11.6665,3.33592
4.45782,10.518,3.02518
4.29218,9.48121,2.75151
4.23045,8.7134,2.51728
4.26515,8.33647,2.34544
4.43095,8.33184,2.21735
4.66964,8.57979,2.10167
4.87623,8.92264,2.00854
5.03786,9.22654,1.93107
5.16907,9.43344,1.83101
5.28792,9.59482,1.70025
5.3892,9.68987,1.56018
5.47975,9.70734,1.42688
5.56186,9.64163,1.27688
5.63605,9.50849,1.09886
5.7005,9.30047,0.919619
5.71692,9.01433,0.769631
5.69022,8.71152,0.658583
5.64234,8.41361,0.580419
5.54663,8.09261,0.531448
5.35885,7.70932,0.499913
5.12457,7.31934,0.481325
4.88523,6.9884,0.476188
4.65258,6.73955,0.478116
4.45717,6.55342,0.481247
4.2958,6.39654,0.489244
4.15468,6.26408,0.510291
4.02508,6.16387,0.538222
3.86974,6.05968,0.569378
3.63796,5.89162,0.614727
3.37276,5.70634,0.677186
3.13396,5.56874,0.746356
2.92502,5.46136,0.814445
2.75633,5.39782,0.88308
2.59565,5.35874,0.951229
2.42121,5.27342,1.01436
2.25192,5.10563,1.06126
2.05819,4.85411,1.09082
1.86519,4.57799,1.1095
1.7142,4.27245,1.08739
1.60055,3.95837,1.02835
1.51693,3.70261,0.978148
1.43609,3.48842,0.950304
1.35913,3.33811,0.945809
1.28613,3.25184,0.954237
1.22477,3.21355,0.962645
1.18409,3.20942,0.970095
1.15342,3.23129,0.981866
1.14044,3.30018,0.999071
1.13436,3.38506,1.02083
1.11025,3.42876,1.04769
1.07114,3.43851,1.07789
1.03341,3.45971,1.11325
1.00849,3.50598,1.15192
0.981508,3.55688,1.19492
0.960899,3.63361,1.2354
0.959795,3.73996,1.26078
0.999845,3.90573,1.27522
1.09017,4.15347,1.28296
1.2025,4.4538,1.29095
1.32686,4.77081,1.29736
1.46156,5.08654,1.29859
1.63811,5.44229,1.29005
1.8672,5.82778,1.26277
2.0591,6.12723,1.2373
2.18778,6.36025,1.23738
2.28368,6.59933,1.25556
2.33921,6.78799,1.29071
2.3651,6.94387,1.35206
2.38538,7.12741,1.43389
2.37836,7.29824,1.54656
2.34316,7.46894,1.71646
2.3024,7.68442,1.95486
2.25493,7.89947,2.25087
2.22202,8.09415,2.59323
2.20115,8.29052,2.91039
2.18524,8.4497,3.16825
2.17817,8.53081,3.41154
2.17088,8.56136,3.63636
2.15049,8.55869,3.83444
2.14722,8.49362,4.00518
2.19973,8.40418,4.14798
2.2968,8.34728,4.27274
2.41442,8.31165,4.39526
2.52746,8.25214,4.51624
2.61093,8.15763,4.65365
2.65928,8.08984,4.80737
2.67973,8.05411,4.94683
2.66851,8.01699,5.07747
2.60416,7.99109,5.21775
2.49553,7.97694,5.36948
2.36946,7.9357,5.53924
2.23808,7.90027,5.70883
2.10588,7.87564,5.86949
1.93623,7.80282,6.0609
1.71217,7.73475,6.30149
1.52717,7.76246,6.5426
1.39937,7.77512,6.74355
1.28669,7.71462,6.94202
1.19864,7.67963,7.12687
1.13153,7.64867,7.25907
1.06638,7.56432,7.35419
1.02642,7.48463,7.40274
1.02291,7.4553,7.3878
1.03857,7.41817,7.29114
1.07693,7.40061,7.10795
1.12891,7.43052,6.86039
1.17314,7.44502,6.62542
1.21514,7.48841,6.44454
1.26319,7.63911,6.27155
1.3182,7.84656,6.10266
1.42292,8.07578,5.93581
1.52562,8.30399,5.77367
1.50923,8.4453,5.62834
1.41917,8.52414,5.50451
1.3043,8.5934,5.3961
1.19164,8.66802,5.29319
1.09846,8.77106,5.17687
1.06306,8.94636,5.0577
1.10504,9.24187,4.98294
1.22714,9.69549,4.95221
1.4382,10.23,4.91811
1.71085,10.7197,4.84755
2.01238,11.1676,4.72174
2.35632,11.6327,4.57944
2.80975,12.2545,4.45267
3.40947,13.1356,4.30645
4.16057,14.2155,4.14111
5.02843,15.433,3.98712
5.94018,16.7367,3.84006
6.83158,17.9991,3.66499
7.64502,19.1512,3.48227
8.39509,20.2829,3.33924
9.09162,21.3521,3.20444
9.69841,22.2551,3.07656
10.2317,23.0529,2.97856
10.7634,23.8184,2.89722
11.2399,24.4181,2.82735
11.5306,24.7324,2.76702
11.7015,24.9099,2.71644
11.8399,25.0482,2.66626
11.9496,25.1396,2.63225
12.0253,25.2137,2.63562
12.063,25.329,2.6682
12.1006,25.6046,2.73669
12.2248,26.1535,2.87479
12.4429,26.9627,3.05024
12.7417,27.9559,3.22839
13.0809,29.0457,3.40935
13.4473,30.1847,3.59624
13.8626,31.3539,3.78068
14.2912,32.4855,3.93433
14.6955,33.5247,4.08466
15.0356,34.456,4.24667
15.277,35.2512,4.3943
15.5104,36.0169,4.53304
15.7589,36.7684,4.66574
15.8675,37.2137,4.76149
15.7383,37.0884,4.79934
15.3807,36.4574,4.78652
14.8649,35.5587,4.73817
14.3704,34.679,4.67385
14.0038,33.9882,4.61664
13.7728,33.4733,4.59184
13.6898,33.1197,4.54403
13.8113,33.0925,4.48693
14.3182,33.6513,4.4539
15.2222,34.8006,4.43866
16.3757,36.4959,4.48383
17.9251,39.0031,4.59868
19.9987,42.612,4.81015
22.6056,47.4957,5.16018
25.6764,53.8463,5.75002
29.1846,62.1041,6.82943
33.1615,72.5399,8.42677
37.3262,84.4837,10.3746
41.4833,97.2902,12.6886
45.6663,110.566,15.1731
49.7352,123.408,17.6416
53.4072,135.55,20.0812
56.6973,146.583,22.3156
59.6977,155.99,24.1003
62.4055,164.229,25.645
64.6039,171.316,26.7496
66.0574,176.592,27.5341
66.7294,179.798,28.4172
66.7668,181.208,29.1261
66.3167,180.816,29.425
65.7661,179.333,29.3675
65.8867,178.803,29.1982
67.9928,182.809,29.4752
73.9554,196.621,31.1393
85.3992,226.35,35.2209
103.995,277.116,43.9941
131.417,353.406,59.5068
168.279,459.493,78.1912
215.673,600.549,102.136
275.514,782.565,134.814
349.067,1011.65,177.016
435.357,1290.53,231.313
531.341,1616.71,298.461
634.877,1984.09,378.305
744.19,2383.83,468.221
856.648,2809.43,568.401
967.91,3246.57,678.684
1074.13,3677.68,789.257
1172.47,4092.19,896.628
1260.32,4484.21,1003.89
1336.19,4846.33,1109.01
1399.94,5172.69,1209.55
1453.47,5464.52,1303.38
1498.73,5723.81,1390.08
1536.81,5957.08,1471.74
1567.56,6165.37,1549.08
1591.3,6347.77,1620.86
1609.34,6508.24,1689.41
1622.83,6648.2,1754.56
1631.76,6762.1,1812.12
1636.92,6849.54,1861.3
1639.58,6916.45,1903.64
1640.45,6964.3,1938.36
1639.86,6991.93,1963.41
1637.46,6999.76,1979.01
1632.63,6988.31,1986.53
1624.67,6957.79,1985.23
1612.18,6909,1976.65
1594.31,6843.78,1961.19
1572.25,6767.29,1944.96
1546.36,6683.19,1929.33
1515.01,6589.87,1913
1476,6479.58,1895.9
1428.29,6343.94,1874.27
1373.25,6181.93,1847.36
1312.93,6000.26,1816.26
1251.12,5817.31,1786.89
1190.72,5640.74,1759.34
1132.75,5463.75,1726.1
1078.28,5285.93,1690.47
1029.86,5114.19,1654.52
989.709,4952.02,1614.49
958.144,4801.09,1570.8
934.987,4664.95,1525.07
918.369,4544.47,1480.07
906.533,4438.72,1436.65
898.849,4342.86,1393.43
895.925,4259.37,1350.93
897.643,4190.92,1310.68
902.939,4134.7,1271.12
910.965,4091.16,1232.88
922.96,4068.81,1200.03
938.246,4068.43,1173.81
954.456,4083.12,1153.13
970.992,4112.4,1139.27
987.227,4156.91,1134.28
1001.87,4212.23,1137.49
1013.82,4272.49,1146.83
1022.34,4331.55,1161.38
1027.27,4383.75,1177.15
1027.89,4422.98,1191.99
1022.2,4439.5,1203.32
1009.07,4425.31,1207.88
988.49,4376.61,1203.43
960.967,4294.28,1189.32
928.384,4184.3,1166.9
892.432,4050.33,1136.22
853.087,3891.39,1096.63
808.54,3697.86,1044.55
758.498,3468.46,979.263
706.431,3224.46,908.643
655.098,2983.41,839.012
604.658,2748.86,771.882
555.851,2524.4,708.304
510.159,2316.55,649.961
467.954,2128.1,597.859
429.34,1957.94,551.433
394.317,1805.15,510.436
362.274,1668.32,474.396
332.786,1544.56,441.973
305.789,1431.94,412.776
281.068,1328.88,386.354
258.488,1234.01,362.071
236.949,1144.79,339.696
216.282,1060.68,319.151
197.492,982.927,300.22
180.101,909.848,282.269
163.776,840.169,265.217
148.947,774.73,249.109
135.469,713.771,233.427
123.12,657.036,218.844
111.709,604.106,205.62
101.079,554.733,193.285
91.4454,509.18,181.786
82.5262,466.544,170.96
73.9426,426.162,160.923
66.0048,388.642,151.621
58.8148,353.702,142.945
52.4512,321.198,134.888
46.9038,291.351,127.003
41.9069,264.111,119.54
37.4118,239.375,112.933
33.2395,216.695,106.883
29.3899,195.986,101.285
26.0152,177.061,96.0372
23.0233,159.379,90.9658
20.2517,142.768,85.947
17.629,127.084,80.9501
15.1512,112.192,76.1685
12.9196,98.2376,71.4281
11.0752,85.4613,66.6812
9.46085,73.7589,62.3113
7.91712,62.8077,58.228
6.65325,53.0379,54.3215
5.76365,44.6614,50.6352
5.20447,37.5572,47.1238
4.90804,31.7344,43.7479
4.75421,26.8753,40.5086
4.69466,22.8547,37.4782
4.6871,19.5928,34.5043
4.69067,16.8193,31.471
4.69238,14.3267,28.6378
4.69807,12.0291,25.9495
4.72045,9.9545,23.316
4.75371,8.09814,20.8763
4.76795,6.54343,18.7265
4.71261,5.36266,16.8967
4.63442,4.46048,15.3482
4.56026,3.78039,14.0693
4.42844,3.28822,12.9495
4.20572,3.03226,11.9914
3.94019,3.02596,11.4045
3.68528,3.25593,11.2382
3.39624,3.8003,11.3983
3.13413,4.52813,11.7323
2.91631,5.26711,12.1679
2.69779,6.04588,12.6638
2.47937,6.87606,13.202
2.30732,7.65136,13.7687
2.1905,8.35122,14.2857
2.08097,8.975,14.8013
1.95725,9.51437,15.3414
1.82629,9.9843,15.8602
1.73167,10.376,16.323
1.67656,10.745,16.7857
1.63425,11.1527,17.2973
1.59201,11.5743,17.7744
1.5462,11.9617,18.1895
1.5218,12.4574,18.5936
1.59766,13.2685,18.979
1.83282,14.4382,19.33
2.26084,15.95,19.6447
2.92747,17.777,19.8913
3.91308,20.0017,20.073
5.34759,22.9579,20.2108
7.32325,26.7003,20.3173
9.65956,30.8448,20.3856
12.1521,35.0894,20.3719
14.8385,39.395,20.265
17.6315,43.8377,20.0636
20.488,48.4287,19.7576
23.4891,53.1094,19.3875
26.586,57.6719,18.8917
29.7121,62.1054,18.1698
32.9525,66.4333,17.2044
36.438,70.4732,16.0084
40.1821,74.3084,14.7341
44.0484,78.0366,13.493
47.9977,81.5851,12.3083
52.0647,84.97,11.1635
56.1346,88.1545,10.1239
60.1186,91.1666,9.25282
63.9276,94.1448,8.4515
67.6744,97.1782,7.70915
71.5761,100.242,7.07477
75.5766,103.263,6.54833
79.5907,106.198,6.05773
83.7057,109.087,5.56675
88.0055,112.033,5.1361
92.3977,114.966,4.78231
96.9415,117.831,4.46465
101.567,120.452,4.16614
105.912,122.652,3.87875
109.814,124.444,3.58374
113.537,126.163,3.28023
117.036,127.834,2.99594
119.652,128.426,2.73153
121.403,128.017,2.47906
122.816,127.408,2.24672
124.276,126.948,2.0395
125.739,126.568,1.85016
126.797,125.698,1.67002
127.401,124.378,1.49968
127.65,122.81,1.32087
127.618,121.223,1.14982
127.301,119.679,1.01477
126.453,117.858,0.912854
125.005,115.743,0.847936
123.103,113.498,0.828323
120.841,111.263,0.866489
118.282,109.045,0.944271
115.433,106.746,1.03122
112.384,104.474,1.1222
109.31,102.352,1.23264
106.357,100.41,1.38086
103.367,98.5141,1.55107
100.162,96.7114,1.75632
96.8475,95.165,2.02409
93.4408,93.747,2.34094
89.9097,92.4499,2.70979
86.2142,91.2575,3.14713
82.4218,90.2252,3.67506
78.522,89.433,4.24903
74.5374,88.8728,4.8799
70.7018,88.5898,5.61571
67.0808,88.6077,6.51341
63.3221,88.4868,7.62836
59.2955,87.897,8.92829
55.4807,87.4058,10.422
51.848,87.0088,12.0863
48.1145,86.277,13.8725
44.1439,85.0589,15.7444
39.9833,83.5412,17.6074
36.0736,82.148,19.4619
32.4824,80.8168,21.3217
29.1041,79.5519,23.14
25.9459,78.3698,24.835
23.0334,77.1126,26.3483
20.5414,75.9516,27.799
18.4509,75.1221,29.312
16.5844,74.6375,30.9666
14.9619,74.4098,32.8093
13.5668,74.5385,34.7279
12.3693,75.0829,36.6584
11.3745,75.9529,38.632
10.4823,77.0457,40.6577
9.65996,78.2854,42.7441
8.95102,79.6693,44.8572
8.29467,80.9898,46.973
7.631,81.9673,48.9875
7.01761,82.5067,50.7996
6.42678,82.7066,52.5408
5.82093,82.8038,54.2958
5.22147,82.8101,55.9519
4.5681,82.2274,57.4666
3.83701,81.1606,58.8254
3.08824,79.8252,59.9394
2.39394,77.8817,60.7116
1.80751,75.476,61.141
1.42761,72.9478,61.2957
1.30366,70.4417,61.0909
1.33741,67.8936,60.6201
1.46635,65.421,60.0699
1.65393,63.1889,59.4367
1.87083,61.0749,58.8093
2.13578,59.1257,58.1628
2.43342,57.382,57.4414
2.73924,55.665,56.6984
3.03151,53.9037,56.0814
3.26842,52.2456,55.6779
3.47253,50.7681,55.3456
3.63167,49.3523,55.0072
3.74446,47.8552,54.5936
3.84897,46.2624,53.911
3.93697,44.5254,53.0911
3.98424,42.6586,52.2783
4.01784,40.6999,51.3961
4.08186,38.565,50.4545
4.15728,36.192,49.4285
4.24318,33.6163,48.3466
4.36132,31.0368,47.2405
4.49534,28.6802,46.1435
4.67206,26.6634,45.0911
4.89054,24.7573,43.9068
5.10767,22.7156,42.5586
5.28925,20.6127,41.1194
5.43989,18.7472,39.5759
5.57789,16.9793,37.9534
5.69908,15.2193,36.3369
5.80153,13.8068,34.8509
5.88078,12.7363,33.4814
5.8873,11.909,32.1606
5.79781,11.3371,30.9731
5.64195,10.9435,29.8596
5.44399,10.6032,28.6777
5.2369,10.2384,27.4668
5.06089,9.88009,26.245
4.93022,9.62703,25.0426
4.8338,9.52679,23.9022
4.7886,9.55244,22.8262
4.79527,9.65033,21.7499
4.85321,9.73545,20.6365
4.96677,9.7719,19.4997
5.13708,9.7288,18.2945
5.35911,9.62041,17.0168
5.62297,9.52151,15.7923
5.9233,9.4051,14.6036
6.21577,9.15765,13.4004
6.41259,8.7688,12.2166
6.50149,8.33004,11.0184
6.54251,7.91142,9.80876
6.53369,7.56087,8.60585
6.49428,7.25587,7.38699
6.48687,6.98937,6.18863
6.48163,6.83275,5.08687
6.45558,6.81641,4.1227
6.44965,6.90038,3.2376
6.47645,7.0463,2.45365
6.53144,7.2911,1.86007
6.64483,7.72298,1.44621
6.82267,8.26657,1.17294
6.99508,8.80425,0.963798
7.14966,9.34574,0.799007
7.34244,9.88036,0.692826
7.55628,10.3816,0.616742
7.76071,10.8653,0.558446
7.95326,11.3261,0.534649
8.11339,11.7516,0.549659
8.19398,12.116,0.580119
8.14579,12.3145,0.61781
8.01361,12.3404,0.657664
7.8047,12.2301,0.687369
7.52585,11.9881,0.707499
7.23073,11.6894,0.720793
6.92876,11.3818,0.732324
6.64516,11.0799,0.741203
6.37362,10.7548,0.739633
6.08837,10.4151,0.736107
5.80261,10.1066,0.737278
5.58747,9.88036,0.735779
5.52693,9.8214,0.736147
5.60935,9.92938,0.736868
5.80064,10.1447,0.737301
6.03536,10.3939,0.738292
6.2497,10.6249,0.738293
6.44931,10.852,0.736455
6.63624,11.0561,0.733292
6.80212,11.2321,0.729713
6.93521,11.3443,0.724476
6.97277,11.3119,0.710649
6.91395,11.1495,0.685653
6.79314,10.9123,0.662644
6.67907,10.7466,0.659987
6.64843,10.7305,0.669615
6.66974,10.7853,0.682439
6.68994,10.8947,0.701375
6.66442,11.0034,0.736884
6.59561,11.0704,0.78956
6.55279,11.2267,0.850643
6.59688,11.5414,0.937994
6.73801,12.013,1.04809
6.96873,12.672,1.15757
7.31257,13.5801,1.28778
7.74786,14.7238,1.44624
8.27153,15.967,1.598
8.85891,17.2435,1.72611
9.40101,18.4683,1.85294
9.8501,19.5823,1.9967
10.1655,20.5219,2.14791
10.3595,21.3054,2.31533
10.4561,21.9568,2.50332
10.4462,22.4599,2.70921
10.3167,22.8294,2.9521
10.0746,23.0339,3.23828
9.72413,23.0799,3.58506
9.35031,23.0173,3.95906
9.01507,22.8633,4.30701
8.68671,22.61,4.67246
8.38403,22.315,5.07322
8.1114,22.0143,5.53161
7.86758,21.7388,6.04471
7.7517,21.5402,6.55973
7.7958,21.3665,7.08171
7.94702,21.1114,7.60449
8.13778,20.7021,8.12316
8.31631,20.1676,8.63027
8.48102,19.5687,9.12031
8.672,18.923,9.64071
8.90897,18.3092,10.1454
9.16671,17.7584,10.63
9.37636,17.1489,11.0823
9.51062,16.4089,11.4023
9.59791,15.5468,11.6383
9.6031,14.601,11.8487
9.47421,13.479,11.983
9.23318,12.1629,12.011
8.89419,10.8076,12.0238
8.4993,9.44903,12.0669
8.16613,8.1359,12.1084
7.93214,6.91108,12.1286
7.85417,5.87822,12.0996
7.90987,5.03716,11.9965
8.03772,4.36489,11.8301
8.22091,3.91366,11.6278
8.4679,3.65742,11.3838
8.74945,3.5812,11.1127
9.00663,3.66392,10.8097
9.20398,3.87166,10.5051
9.316,4.15642,10.289
9.38225,4.58226,10.1386
9.41943,5.1858,10.0342
9.44505,5.92779,9.95089
9.45678,6.77145,9.88885
9.39498,7.61649,9.89606
9.23427,8.45406,9.97329
8.95923,9.3002,10.1452
8.58137,10.1181,10.4031
8.14744,10.8909,10.7589
7.69282,11.6489,11.1955
7.22463,12.3426,11.5979
6.78984,12.9667,12.0411
6.41017,13.5484,12.5146
6.10602,14.0549,13.048
5.87019,14.4812,13.7287
5.67349,14.8284,14.4503
5.55872,15.1445,15.1962
5.49845,15.4578,16.0083
5.48085,15.7501,16.8447
5.5128,16.0149,17.6736
5.56656,16.2451,18.4931
5.58538,16.4711,19.2714
5.54609,16.686,20.0162
5.49903,16.8064,20.7383
5.51392,16.8051,21.4498
5.58551,16.6797,22.1356
5.63794,16.4561,22.8023
5.65519,16.1514,23.4497
5.7152,15.76,24.0216
5.88963,15.2805,24.4954
6.16661,14.7475,24.8732
6.47971,14.2203,25.1213
6.75129,13.6013,25.2042
7.00021,12.8433,25.1437
7.21013,11.9546,24.9819
7.41,10.9585,24.7248
7.64689,9.99632,24.3543
7.85279,9.08798,23.8774
8.04739,8.21249,23.2882
8.22289,7.37999,22.592
8.31329,6.59982,21.7848
8.33131,5.85438,20.8906
8.30111,5.21177,19.9769
8.26209,4.68997,19.0006
8.23794,4.23921,17.9811
8.19833,3.86118,16.9079
8.13021,3.56974,15.7799
8.05818,3.36583,14.666
8.01315,3.20198,13.5545
7.94623,3.01697,12.4393
7.78126,2.78451,11.387
7.57685,2.55137,10.3722
7.3662,2.33958,9.37327
7.18064,2.12146,8.43858
7.01595,1.89964,7.55853
6.80502,1.74275,6.76178
6.50338,1.65579,6.06022
6.18038,1.6078,5.46939
6.01549,1.56541,4.97041
6.06275,1.54966,4.52865
6.21297,1.61813,4.12761
6.34504,1.74659,3.76817
6.47803,1.89699,3.47041
6.7594,2.07737,3.25886
7.21008,2.27572,3.165
7.69876,2.44964,3.15765
8.11494,2.56797,3.18766
8.44371,2.62928,3.27622
8.75787,2.64,3.48176
9.13494,2.64058,3.78465
9.49074,2.63291,4.14263
9.80188,2.62896,4.5193
10.1942,2.62788,4.93122
10.641,2.61284,5.38718
11.0638,2.56381,5.86982
11.4602,2.46666,6.383
11.8266,2.33839,6.89889
12.1798,2.20584,7.39097
12.5117,2.07217,7.87019
12.7734,1.93708,8.37058
12.9533,1.79526,8.87001
13.1092,1.67817,9.32284
13.2961,1.62866,9.6932
13.4693,1.60224,9.98662
13.5864,1.5858,10.2154
13.626,1.5859,10.3901
13.6123,1.61464,10.5282
13.5837,1.66548,10.629
13.5495,1.71077,10.6825
13.474,1.75019,10.6807
13.2685,1.79542,10.6204
12.8814,1.84045,10.5332
12.3638,1.86218,10.475
11.7975,1.87481,10.4514
11.1908,1.8972,10.4467
10.4751,1.89631,10.4318
9.65542,1.8718,10.3683
8.8203,1.85322,10.2528
8.08765,1.88785,10.111
7.45096,1.97223,9.92161
6.83333,2.06523,9.65364
6.21991,2.17585,9.31497
5.65651,2.2851,8.92815
5.17014,2.35663,8.52133
4.68966,2.40866,8.08739
4.22617,2.43797,7.63757
3.83413,2.44957,7.18847
3.45152,2.46088,6.72172
3.04948,2.49786,6.27188
2.63216,2.58265,5.88121
2.21518,2.72298,5.50781
1.84346,2.92304,5.11257
1.52202,3.21089,4.73419
1.2744,3.60835,4.40946
1.13286,4.11323,4.17926
1.07234,4.76581,4.05626
1.08449,5.55573,4.01805
1.216,6.47786,4.03341
1.44129,7.48648,4.08812
1.66251,8.46237,4.19647
1.88954,9.44946,4.33596
2.13214,10.4971,4.5009
2.41235,11.5674,4.6694
2.74667,12.6503,4.80307
3.10384,13.7676,4.93059
3.49588,14.933,5.0532
3.91167,16.0552,5.15592
4.27715,17.0549,5.25908
4.54318,17.9364,5.3737
4.77575,18.7893,5.52379
4.99845,19.5871,5.67778
5.20554,20.355,5.81607
5.45434,21.2653,5.97521
5.75315,22.2419,6.1221
6.0746,23.2288,6.2447
6.45192,24.3581,6.38138
6.89519,25.5965,6.50842
7.337,26.8127,6.61789
7.73497,28.0016,6.72034
8.09864,29.2347,6.86797
8.45327,30.4535,7.06164
8.84655,31.7046,7.23333
9.24871,32.9769,7.41874
9.57378,34.0356,7.60089
9.8519,34.8922,7.74464
10.054,35.6021,7.90738
10.123,36.1047,8.10658
10.0859,36.3337,8.28577
9.97176,36.2863,8.42738
9.76674,35.995,8.59975
9.50137,35.5827,8.85191
9.25681,35.207,9.12205
9.02556,34.9087,9.35022
8.81778,34.6236,9.5106
8.56387,34.2196,9.65778
8.24216,33.7294,9.88341
7.8921,33.2071,10.1745
7.50417,32.656,10.5539
7.08911,32.1816,11.0379
6.72388,31.7485,11.5819
6.4775,31.2828,12.2269
6.32105,30.7922,13.014
6.2531,30.3526,13.991
6.20513,29.9436,15.0055
6.0474,29.4524,15.8694
5.7964,28.9271,16.6177
5.50512,28.405,17.2671
5.15193,27.709,17.7922
4.75749,26.7544,18.2316
4.38732,25.7043,18.5593
4.06427,24.6147,18.7839
3.78992,23.4327,18.9074
3.50093,22.2409,18.909
3.1333,21.0083,18.8583
2.72883,19.7824,18.7661
2.41644,18.8756,18.6573
2.1951,18.2178,18.5402
2.06969,17.6623,18.3701
2.10624,17.2656,18.1297
2.2344,16.9935,17.8581
2.42775,16.8198,17.5638
2.74115,16.7794,17.2
3.21096,16.8587,16.7304
3.7936,16.9761,16.2042
4.37849,16.9443,15.7039
4.86262,16.6761,15.2557
5.26244,16.2912,14.832
5.59232,15.7869,14.3877
5.862,15.1575,13.9135
6.07977,14.4166,13.3913
6.22957,13.5982,12.8465
6.32606,12.8895,12.3033
6.43074,12.3356,11.6918
6.53184,11.8363,10.9839
6.5035,11.3796,10.1312
6.4112,10.9829,9.2647
6.36523,10.612,8.5578
6.37134,10.2166,7.99383
6.45531,9.75262,7.55564
6.6117,9.31139,7.24789
6.79559,9.02147,7.0833
6.9938,8.86025,7.08749
7.18659,8.77218,7.16861
7.41399,8.72107,7.3107
7.72797,8.65991,7.55868
8.05132,8.57895,7.92271
8.36038,8.45657,8.39495
8.59535,8.19713,8.92048
8.72575,7.84204,9.5042
8.81616,7.45094,10.1751
8.83649,7.01807,10.9249
8.83092,6.59089,11.7543
8.8203,6.19281,12.6147
8.72021,5.78861,13.4928
8.46537,5.33688,14.4609
8.08204,4.87738,15.4944
7.67734,4.55898,16.646
7.33499,4.49682,17.9301
7.09667,4.67073,19.2552
6.96238,5.02358,20.5836
6.88458,5.48066,21.9175
6.86911,5.99597,23.3212
6.93594,6.56698,24.7277
7.04098,7.17006,26.0567
7.09594,7.83731,27.3589
7.06742,8.63564,28.6377
7.05627,9.53512,29.9289
7.08745,10.4613,31.3001
7.12672,11.4746,32.782
7.10834,12.8151,34.3288
6.99862,14.5011,35.8127
6.81706,16.3209,37.284
6.5789,18.1965,38.7181
6.29603,20.1223,40.0198
6.00178,22.0955,41.2866
5.66923,24.0831,42.5036
5.2978,26.1078,43.6508
4.97221,28.1805,44.7006
4.69197,30.1949,45.6211
4.44457,32.0168,46.4335
4.23009,33.623,47.1691
4.00279,35.0933,47.8528
3.77293,36.5094,48.4805
3.53928,37.9287,48.9606
3.28794,39.4014,49.4472
3.03744,40.8717,50.0326
2.81247,42.3269,50.5569
2.62626,43.8318,50.9857
2.47259,45.3758,51.199
2.34417,46.8565,51.223
2.21582,48.2906,51.1671
2.10702,49.8471,51.0189
2.06289,51.5113,50.8064
2.0762,53.2973,50.4245
2.22998,55.4344,49.8904
2.63151,58.0761,49.3464
3.24939,61.0191,48.7429
3.99864,63.8575,48.0432
4.67253,66.3166,47.301
5.22793,68.3795,46.4671
5.74517,70.0051,45.3984
6.25214,70.9277,44.1015
6.73791,71.1374,42.7051
7.18624,70.8927,41.1567
7.6187,70.3151,39.4756
8.03208,69.4673,37.7964
8.43811,68.4612,36.1236
8.90088,67.4364,34.4761
9.39002,66.3782,32.8639
9.88212,65.2444,31.2797
10.441,64.1861,29.7327
11.0722,63.3402,28.2632
11.7808,62.6769,26.8362
12.6319,62.2667,25.3972
13.7397,62.1895,23.9512
15.1928,62.3512,22.5768
16.8487,62.5252,21.1888
18.4869,62.6083,19.7035
19.967,62.4861,18.1968
21.3491,62.1057,16.7262
22.8169,61.6571,15.3588
24.4034,61.2863,14.0508
25.8916,60.8225,12.7757
27.2098,60.0757,11.5626
28.4051,59.053,10.3729
29.4068,57.703,9.25013
30.1802,55.8536,8.21205
30.6627,53.338,7.19808
30.8579,50.3238,6.2466
30.8383,47.2028,5.35755
30.909,44.324,4.45586
31.1432,41.7808,3.56292
31.3409,39.4843,2.76074
31.4569,37.4623,2.09862
31.5269,35.8256,1.5945
31.6228,34.5438,1.25266
31.7661,33.545,1.05012
31.956,32.7841,0.931387
32.0898,32.1031,0.862717
32.0633,31.3513,0.825423
31.955,30.5299,0.802548
31.7712,29.6539,0.80281
31.4603,28.6742,0.840028
31.0591,27.6141,0.933751
30.5655,26.5307,1.09228
29.9071,25.298,1.26291
28.9528,23.7742,1.43976
27.6311,22.0141,1.65521
26.1066,20.2096,1.91064
24.5853,18.4889,2.19153
23.2248,16.9488,2.52254
21.9754,15.5902,2.94745
20.5886,14.2318,3.46636
19.0355,12.8492,4.10019
17.5687,11.6562,4.83183
16.2287,10.6834,5.59582
14.954,9.91238,6.40551
13.8093,9.34097,7.2115
12.74,8.86102,7.97278
11.7244,8.47961,8.71613
10.7989,8.23455,9.44849
9.99216,8.05314,10.1695
9.21777,7.83121,10.8884
8.43149,7.55696,11.6165
7.73931,7.32408,12.3407
7.17843,7.1928,13.0548
6.74367,7.04627,13.7293
6.47507,6.76438,14.3443
6.37355,6.42588,14.8972
6.25382,6.07565,15.4121
6.08895,5.77241,15.9184
5.94742,5.57031,16.4167
5.76354,5.48107,16.8783
5.53967,5.5311,17.304
5.29217,5.74686,17.7203
5.04516,6.13363,18.0661
4.81795,6.65724,18.3731
4.61981,7.38583,18.7675
4.4743,8.31443,19.2284
4.35908,9.3504,19.7205
4.25353,10.4609,20.2299
4.16593,11.5873,20.7623
4.04867,12.5751,21.3141
3.89794,13.3775,21.8101
3.77865,14.0278,22.2684
3.69841,14.5406,22.6282
3.63894,14.9026,22.8508
3.59366,15.1582,23.0279
3.5492,15.3924,23.149
3.50113,15.718,23.3403
3.43497,16.2188,23.6314
3.36579,16.7994,23.9139
3.29833,17.5009,24.2202
3.22627,18.3543,24.534
3.14097,19.1767,24.7814
3.03908,19.9621,24.9773
2.93195,20.7295,25.1598
2.83202,21.3932,25.3448
2.70791,22.0486,25.5949
2.43259,22.8437,25.8337
1.96249,23.7112,25.9898
1.49059,24.5516,26.0699
1.12127,25.2515,26.0819
0.82198,25.7934,26.0516
0.61126,26.2166,25.9954
0.503043,26.4796,25.9389
0.478014,26.5368,25.8486
0.494264,26.3896,25.7654
0.542957,26.066,25.7012
0.596579,25.5341,25.5457
0.615777,24.8188,25.2834
0.606768,24.0184,24.9588
0.583571,23.1635,24.5855
0.568127,22.244,24.15
0.590913,21.3859,23.6254
0.62254,20.6615,23.0379
0.622954,20.0746,22.3469
0.606547,19.6542,21.5978
0.593859,19.3996,20.877
0.605666,19.2435,20.1506
0.681113,19.1781,19.4168
0.817183,19.1809,18.6065
1.03807,19.1316,17.7205
1.3647,19.1144,16.8214
1.82644,19.1068,15.8676
2.43398,19.1065,14.9056
3.26402,19.426,13.9981
4.2817,20.0175,13.1187
5.27491,20.6728,12.272
6.26059,21.4585,11.449
7.27135,22.347,10.6129
8.22316,23.2537,9.86856
9.15039,24.2205,9.27356
10.0726,25.2765,8.80356
10.9444,26.4207,8.42258
11.7238,27.4978,8.08267
12.3702,28.4004,7.78479
12.9799,29.3283,7.49095
13.5906,30.3366,7.20835
14.2159,31.415,6.9172
14.8854,32.5824,6.57553
15.6045,33.7918,6.2346
16.4081,35.0599,5.92463
17.2881,36.3527,5.61225
18.2062,37.6651,5.30148
19.1234,39.0145,5.00749
20.053,40.4078,4.73133
20.9853,41.8154,4.46771
21.9322,43.1197,4.23348
22.8742,44.2822,4.04387
23.7729,45.3093,3.86309
24.5664,46.1001,3.68591
25.188,46.5767,3.51567
25.6669,46.7192,3.33437
26.0065,46.633,3.15603
26.223,46.3944,3.00753
26.3002,45.9967,2.89514
26.1908,45.4349,2.79644
25.833,44.603,2.7129
25.266,43.5365,2.64891
24.6933,42.4004,2.5778
24.1067,41.1936,2.49096
23.4749,39.9154,2.38938
22.9148,38.6025,2.25536
22.4239,37.2255,2.10408
21.9644,35.7711,1.94168
21.5315,34.3353,1.76904
21.1455,33.1382,1.60604
20.8864,32.2653,1.45737
20.6729,31.5457,1.33714
20.4455,30.9137,1.24334
20.2049,30.3304,1.18087
19.8321,29.7219,1.15834
19.3174,29.0549,1.16152
18.7629,28.3412,1.18158
18.212,27.6507,1.20276
17.6674,26.9539,1.23761
17.1542,26.328,1.28832
16.639,25.7834,1.31254
16.0895,25.2054,1.34927
15.515,24.6786,1.42747
14.9964,24.3685,1.52856
14.6327,24.4598,1.67997
14.4944,25.125,1.92492
14.6635,26.4998,2.27547
15.24,28.9823,2.76802
16.2855,32.7942,3.51536
17.7239,37.8237,4.56499
19.561,44.3179,5.84195
21.8318,52.4354,7.47031
24.2669,61.7163,9.5439
26.6703,71.5985,11.9525
29.2543,82.2589,14.5491
31.9811,93.3643,17.2156
34.6315,103.95,19.6955
37.2899,113.71,21.7268
39.7146,122.084,23.2325
41.6467,129.071,24.3603
43.2553,135.158,25.508
44.5595,140.353,26.6966
45.3519,144.258,27.7197
45.6078,146.551,28.5054
45.4324,147.131,28.9284
45.0305,146.485,29.0249
45.0814,146.118,28.9464
46.4692,148.65,29.104
50.5436,158.961,30.6228
59.0145,183.603,36.7312
73.1489,227.821,46.8869
93.8012,294.886,59.6092
121.394,388.752,78.6872
156.904,514.468,105.55
202.386,677.966,141.507
259.818,885.402,187.761
328.899,1141.48,246.522
407.667,1446.97,319.73
494.637,1797.97,407.219
586.905,2184.14,511.474
680.735,2595.07,627.67
773.563,3023.16,748.429
861.679,3451.53,874.732
942.925,3865.65,1002.2
1017.81,4262.83,1128.1
1085.12,4639.82,1252.44
1142.5,4984.67,1371.74
1190.81,5295.49,1484.02
1231.71,5577.64,1590.61
1265.57,5831.5,1691.37
1293.01,6057.29,1785.48
1314.58,6255.02,1872.55
1330.62,6426.65,1953.4
1341.79,6574.65,2029.03
1348.9,6697.24,2097.87
1352.46,6789.62,2156.22
1353.87,6856.16,2203.97
1354.29,6903.83,2242.46
1353.9,6933.88,2271.64
1352.43,6946.47,2289.87
1349.23,6940.93,2297.65
1343.47,6915.84,2296.42
1334.23,6871.76,2287.93
1320.86,6810.22,2275.12
1303.78,6733.46,2256.81
1283.27,6644.43,2234.71
1257.78,6542.8,2210.11
1225.24,6424.64,2183.55
1184.82,6281.54,2152.27
1136.8,6106.77,2113.69
1082.11,5902.54,2068.89
1024.58,5683.65,2015.02
969.083,5466.94,1958.11
916.744,5251.53,1904.1
868.214,5035.44,1845.49
824.256,4824.26,1783.44
784.446,4619.38,1719.89
749.937,4421.91,1654.05
722.18,4240.04,1588.08
700.322,4075.74,1524.04
683.319,3926.84,1461.57
670.714,3793.82,1401.03
661.987,3676.95,1343.73
657.017,3577.54,1290.52
656.379,3496.2,1240.36
660.116,3432.61,1192.48
667.706,3389.33,1148.99
678.762,3372.17,1114.1
691.153,3376.44,1088.32
703.432,3395.18,1070.64
715.31,3427.49,1061.53
726.363,3470.73,1061.99
735.418,3519.47,1069.81
741.606,3569.17,1080.85
745.148,3615.43,1094.26
745.653,3652.67,1108.27
742.132,3674.38,1120.29
733.558,3673.44,1127.23
719.51,3644.33,1126.56
700.006,3584.75,1116.53
675.787,3498.01,1098.01
648.573,3389.95,1071.75
619.1,3262.98,1036.45
586.514,3112.98,992.77
549.763,2933.72,939.647
510.271,2733.73,878.424
471.029,2531.79,815.851
433.562,2337.13,755.103
398.11,2151.68,696.9
364.85,1978.17,642.21
334.47,1820.03,592.514
306.906,1677.16,547.886
281.643,1546.7,507.238
258.687,1427.97,470.444
238.076,1320.89,437.39
219.651,1224.16,407.4
202.559,1135.02,380.177
186.237,1051.63,355.419
170.549,973.705,332.843
155.41,900.55,312.052
141.464,832.68,292.773
128.805,769.84,274.834
116.946,710.37,257.511
105.732,654.183,240.975
95.5188,602.491,226.012
86.2793,554.773,212.216
77.4596,509.741,199.29
69.2606,468.099,187.52
61.8328,430.228,176.876
55.0105,395.33,167.244
48.736,363.085,158.487
43.0411,333.385,150.674
38.1714,306.559,143.322
34.072,282.622,136.049
30.5797,260.753,129.418
27.618,240.279,123.276
24.9948,220.831,117.386
22.7098,202.432,111.786
20.7937,184.918,106.278
19.1392,167.873,100.81
17.7932,151.146,95.3526
16.8426,134.786,89.8465
16.1863,118.925,84.257
15.6587,103.904,78.4754
15.2421,90.323,72.8617
14.9605,78.2958,67.6262
14.839,67.8613,62.559
14.8662,59.0221,57.6755
14.9116,51.5018,53.1259
14.9068,44.9452,48.9814
14.8862,39.216,45.1808
14.8673,34.318,41.7081
14.8362,30.1369,38.5538
14.8022,26.4942,35.5588
14.7748,23.2036,32.8317
14.8063,20.2968,30.4798
14.956,17.7147,28.3375
15.2255,15.3274,26.3344
15.5627,13.0784,24.3719
15.9291,10.9943,22.4269
16.3141,9.01433,20.5979
16.6951,7.19475,18.9295
17.0126,5.75272,17.4971
17.2244,4.68609,16.2398
17.3889,3.92096,15.279
17.518,3.48228,14.8059
17.5226,3.3867,14.5972
17.3299,3.52304,14.5348
16.9427,3.81572,14.5902
16.4265,4.17718,14.7166
15.8472,4.5584,14.986
15.1757,4.93336,15.4077
14.2483,5.25455,15.8551
13.019,5.51734,16.303
11.6157,5.73491,16.8249
10.2579,5.92099,17.4052
9.0693,6.16886,18.0436
8.031,6.50805,18.719
7.19029,6.91111,19.347
6.58175,7.40586,19.9387
6.16723,7.96725,20.4804
5.90369,8.58161,20.9774
5.76355,9.3385,21.4716
5.74722,10.3291,21.9767
5.85406,11.5349,22.5131
6.04048,12.8604,23.0106
6.27164,14.2561,23.4369
6.51444,15.7046,23.7967
6.71883,17.1662,24.0315
6.87936,18.6899,24.1368
7.07757,20.3196,24.13
7.33361,21.9909,24.0404
7.62831,23.7343,23.8656
7.99711,25.5746,23.5475
8.57392,27.6006,23.1134
9.64049,30.1043,22.5547
11.3816,33.2768,21.8643
13.6918,36.9739,21.1045
16.3993,40.9192,20.2905
19.3433,44.8254,19.3507
22.473,48.5048,18.2981
25.4875,51.8286,17.2176
28.0498,54.6747,16.0604
30.2722,57.0605,14.8023
32.3911,59.119,13.5862
34.4312,60.8241,12.4207
36.4873,62.2126,11.2621
38.6921,63.3613,10.2435
41.007,64.186,9.40881
43.4725,64.7156,8.73432
46.0068,65.0606,8.27198
48.5545,65.2304,8.02344
50.8993,65.14,7.97653
52.8471,64.7875,8.12051
54.4919,64.1815,8.33026
55.8739,63.2704,8.48908
56.9906,62.0964,8.65982
57.859,60.7679,8.93804
58.5087,59.365,9.30201
58.9381,57.9186,9.68164
59.2101,56.4673,10.1087
59.4083,54.9548,10.5769
59.5131,53.3357,11.0823
59.5427,51.6727,11.6379
59.504,49.9336,12.2106
59.3662,48.0901,12.7695
59.0709,46.0338,13.2479
58.2846,43.4562,13.5552
56.824,40.1826,13.7123
54.9195,36.3965,13.7956
52.7474,32.3932,13.8627
50.4301,28.4461,13.9514
48.0401,24.7432,14.0514
45.8302,21.4578,14.1359
44.0572,18.7332,14.2109
42.6004,16.5333,14.2853
41.2319,14.6805,14.3369
39.9002,13.1568,14.3652
38.4739,11.9374,14.3573
36.8405,10.9477,14.2915
35.0868,10.2006,14.1488
33.1479,9.6507,13.9135
31.0919,9.27677,13.5767
29.0112,9.10551,13.1382
27.1342,9.30193,12.6283
25.6384,9.85347,12.0327
24.3827,10.5826,11.4248
23.2964,11.4586,10.9107
22.4071,12.488,10.3931
21.72,13.6869,9.84829
21.1853,14.978,9.32819
20.7987,16.3244,8.85682
20.5198,17.7632,8.4323
20.2488,19.2648,8.05374
19.939,20.8782,7.76843
19.5974,22.6191,7.54262
19.2451,24.4237,7.36367
18.8892,26.296,7.3172
18.5082,28.2963,7.44801
18.1406,30.339,7.82831
17.7396,32.2749,8.45237
17.2155,34.0721,9.2352
16.6243,35.8687,10.0889
15.9966,37.7606,10.963
15.3002,39.6517,11.8689
14.5511,41.5276,12.8487
13.7376,43.2653,13.8688
12.8507,44.8299,14.9059
11.9522,46.264,15.974
11.1026,47.4725,17.0392
10.3503,48.4588,18.0568
9.69485,49.302,19.0338
9.09218,50.0535,20.0332
8.55573,50.7978,21.0822
8.0835,51.5253,22.1522
7.63079,52.0906,23.1806
7.17579,52.4029,24.0394
6.72101,52.5016,24.7755
6.29659,52.5162,25.5001
5.91746,52.5395,26.2241
5.56567,52.7239,27.0017
5.24621,53.095,27.8016
4.97384,53.5487,28.5914
4.72235,54.0601,29.4186
4.46377,54.6095,30.2511
4.20034,55.1781,31.1003
3.96427,55.6917,31.9166
3.7368,56.0866,32.6617
3.50393,56.2236,33.3054
3.25749,55.9921,33.8361
2.9895,55.4618,34.3472
2.74967,54.8729,34.8598
2.57361,54.3035,35.2741
2.43453,53.5344,35.503
2.30095,52.2933,35.5715
2.20869,50.5634,35.5148
2.19304,48.5942,35.421
2.21898,46.4749,35.2382
2.27985,44.3689,34.9275
2.39645,42.3459,34.52
2.56394,40.4038,34.0124
2.75523,38.6887,33.5527
2.95162,37.2146,33.2335
3.14745,35.8844,32.9399
3.2753,34.68,32.5463
3.30078,33.6133,32.0545
3.29156,32.7068,31.5184
3.27903,31.9348,30.9866
3.27602,31.2197,30.6196
3.32311,30.5305,30.4436
3.47158,29.7777,30.3685
3.72338,28.8502,30.2456
4.0435,27.6109,29.9266
4.41016,26.0324,29.4633
4.81956,24.2874,28.89
5.28203,22.4312,28.1746
5.81105,20.4625,27.3497
6.4623,18.4617,26.3982
7.16412,16.473,25.3146
7.82005,14.5243,24.1612
8.48259,12.7747,23.0542
9.14869,11.2811,22.0108
9.74145,9.89553,20.9227
10.2504,8.48,19.7703
10.7257,7.09692,18.6691
11.1775,5.97491,17.6959
11.567,5.25355,16.8383
11.8387,4.86019,16.0863
12.0019,4.61663,15.3583
12.0943,4.45233,14.6443
12.1621,4.3397,13.9969
12.204,4.26497,13.4309
12.1746,4.22503,12.9455
12.1134,4.17072,12.4212
12.0616,4.08192,11.8068
12.0231,3.98616,11.204
12.0428,3.85584,10.6637
12.1597,3.59991,10.1598
12.3128,3.17883,9.67463
12.4389,2.71254,9.21299
12.5125,2.31032,8.72424
12.5225,1.98508,8.13075
12.4314,1.75989,7.40835
12.2232,1.64107,6.68754
11.9268,1.59683,6.07154
11.5548,1.58878,5.53436
11.1204,1.58904,5.06986
10.6216,1.58488,4.68269
10.0325,1.55565,4.35147
9.31811,1.47598,4.07696
8.55654,1.32957,3.8865
7.83921,1.13719,3.77187
7.14487,0.940998,3.66898
6.48504,0.788219,3.51729
5.90432,0.703442,3.31668
5.40075,0.660567,3.09329
4.9265,0.633783,2.84084
4.4715,0.612043,2.57325
4.04654,0.59152,2.32649
3.65895,0.571278,2.11282
3.28584,0.558077,1.9251
2.93869,0.549358,1.76843
2.62117,0.525225,1.63822
2.33363,0.496473,1.51545
2.09547,0.475143,1.40054
1.88537,0.458144,1.29738
1.68122,0.437029,1.20776
1.48328,0.407699,1.12965
1.31976,0.37499,1.06844
1.18066,0.350741,1.01744
1.03828,0.334186,0.963051
0.913628,0.326229,0.904102
0.829756,0.326615,0.849684
0.780944,0.341059,0.804635
0.754752,0.374048,0.768759
0.768678,0.440349,0.737664
0.830456,0.566501,0.705393
0.94382,0.778805,0.666831
1.10403,1.04482,0.619755
1.26589,1.33584,0.570088
1.4321,1.68739,0.539012
1.63953,2.1281,0.520779
1.92182,2.64523,0.488544
2.28427,3.20001,0.441603
2.65086,3.73899,0.391676
2.96008,4.16964,0.352188
3.19815,4.47766,0.330917
3.4024,4.72735,0.320569
3.61526,4.97844,0.316638
3.83835,5.2528,0.317805
4.06313,5.53242,0.319269
4.28364,5.82138,0.312951
4.48578,6.10131,0.291427
4.6981,6.37374,0.259402
4.87791,6.60962,0.232006
4.93983,6.7215,0.217238
4.95056,6.76421,0.209193
4.9596,6.80688,0.212488
4.9775,6.8814,0.226689
5.02833,7.03042,0.244342
5.12409,7.27718,0.265522
5.23159,7.53168,0.284575
5.31028,7.7179,0.300675
5.37515,7.85371,0.313804
5.43282,7.9913,0.329405
5.46746,8.13548,0.360647
5.48666,8.31194,0.414082
5.4827,8.542,0.500949
5.42012,8.76427,0.648314
5.27358,8.90662,0.872935
5.06089,8.94275,1.18334
4.88744,8.85386,1.5905
4.80597,8.62955,2.06346
4.78313,8.25321,2.52833
4.81341,7.74152,2.95544
4.91398,7.18648,3.36098
5.10595,6.66547,3.74577
5.32487,6.27447,4.04111
5.50412,6.0196,4.20333
5.59776,5.81858,4.29017
5.58857,5.60691,4.34505
5.54719,5.38673,4.37725
5.54714,5.21054,4.39571
5.57515,5.09248,4.39887
5.58754,5.03064,4.39045
5.57319,4.99599,4.38774
5.55629,4.98132,4.38912
5.58846,5.03508,4.391
5.62588,5.10227,4.39933
5.62997,5.12224,4.41969
5.61046,5.08756,4.43714
5.5568,4.97356,4.45394
5.45162,4.76102,4.46684
5.32489,4.55332,4.48378
5.23152,4.43104,4.526
5.17163,4.35128,4.6136
5.13789,4.26055,4.74821
5.12292,4.17068,4.92295
5.09545,4.08954,5.1877
5.0598,4.00009,5.55965
5.04896,3.91153,5.88536
5.06957,3.84469,6.15292
5.11108,3.8913,6.4728
5.12089,4.12176,6.82615
5.05189,4.48574,7.17749
4.8915,4.94962,7.5956
4.61267,5.48926,8.13788
4.21825,6.01001,8.76691
3.77287,6.4706,9.53319
3.40919,6.87362,10.5842
3.21417,7.25037,11.7827
3.19851,7.61719,13.0302
3.32287,7.95968,14.3516
3.49199,8.26202,15.6956
3.62291,8.49443,17.071
3.73658,8.66002,18.473
3.92723,8.74988,19.8862
4.21578,8.76568,21.3267
4.60854,8.78172,22.8229
5.10938,8.82512,24.3668
5.64878,8.8893,25.8427
6.18806,8.98153,27.1436
6.6814,9.08584,28.2929
7.05999,9.20577,29.3012
7.35036,9.35169,30.2001
7.60872,9.47395,31.0018
7.81974,9.55788,31.6599
7.96045,9.66393,32.1814
8.04485,9.78666,32.5786
8.09956,9.86697,32.8423
8.15963,9.84458,32.9132
8.2242,9.70539,32.7635
8.27286,9.48694,32.5136
8.2911,9.22208,32.1692
8.2788,8.88908,31.6423
8.25839,8.46627,30.9519
8.23716,7.98321,30.1727
8.2061,7.46275,29.3211
8.16637,6.91636,28.3676
8.10255,6.39297,27.3407
7.98028,5.91397,26.1975
7.80255,5.47306,24.8555
7.58549,5.04589,23.4965
7.30727,4.62953,22.168
6.97907,4.24995,20.8025
6.62904,3.89801,19.4332
6.27311,3.56663,18.0413
5.90862,3.23854,16.6344
5.50904,2.95099,15.2234
5.08248,2.77018,13.7815
4.64559,2.67005,12.2811
4.21054,2.6492,10.7332
3.8811,2.70943,9.24811
3.71385,2.81617,7.92513
3.66581,2.94436,6.75597
3.77186,3.05999,5.74147
4.00545,3.12992,4.85753
4.20586,3.1116,4.09673
4.33862,3.02943,3.4815
4.44079,2.88417,2.99153
4.49717,2.71288,2.63698
4.53185,2.58555,2.43798
4.57864,2.52695,2.3924
4.63353,2.53167,2.50409
4.71915,2.57141,2.76856
4.87224,2.63498,3.18163
5.07756,2.70943,3.71233
5.32541,2.78076,4.3138
5.70174,2.81961,5.01666
6.38284,2.8153,5.82322
7.35248,2.81446,6.74555
8.46124,2.81633,7.77529
9.5959,2.81578,8.85768
10.5409,2.81934,9.96413
11.3122,2.83537,11.0636
12.1465,2.85227,12.1919
13.045,2.86906,13.3535
13.7948,2.91663,14.5086
14.3419,3.03766,15.7068
14.6908,3.26188,16.8512
14.8449,3.5783,17.8385
14.8582,3.92592,18.7651
14.7819,4.3501,19.7262
14.638,4.9381,20.8232
14.3916,5.61102,22.0372
14.039,6.23242,23.331
13.659,6.79542,24.7195
13.2542,7.35088,26.1408
12.8147,7.94491,27.5832
12.4715,8.61202,29.0772
12.2749,9.33585,30.6255
12.153,10.0967,32.0534
12.0901,10.8157,33.2629
12.06,11.4532,34.3105
12.0243,12.0161,35.1957
11.9702,12.5227,35.9209
11.8807,13.0135,36.5189
11.7539,13.4672,36.9718
11.6005,13.8624,37.2775
11.4067,14.2133,37.4813
11.0761,14.5835,37.5411
10.4339,15.0084,37.481
9.49662,15.4311,37.3018
8.41146,15.8504,36.9865
7.29739,16.2668,36.5939
6.35752,16.6862,36.1494
5.57387,17.1391,35.66
4.73141,17.6571,35.0983
3.83155,18.2035,34.4644
3.08376,18.7489,33.8143
2.54736,19.2997,33.1202
2.22678,19.8242,32.4481
2.11477,20.2791,31.8856
2.11263,20.6657,31.3458
2.11852,20.8063,30.74
2.0983,20.4735,29.9437
2.07585,19.8274,28.9508
2.04208,19.1516,27.8146
1.98133,18.5418,26.5605
1.91559,17.9809,25.2643
1.87496,17.467,23.9146
1.86138,17.0909,22.4836
1.86329,16.8799,21.0021
1.91143,16.8193,19.6227
2.03268,17.0073,18.444
2.18441,17.5009,17.4407
2.36063,18.2499,16.5981
2.62671,19.2491,15.8797
3.00287,20.5347,15.246
3.44852,22.0396,14.7199
3.90176,23.663,14.302
4.3017,25.2895,13.9735
4.62898,26.763,13.7276
4.96971,28.1737,13.4352
5.35026,29.5854,13.105
5.69848,30.8785,12.8146
6.03417,32.1026,12.5228
6.39297,33.2833,12.2637
6.69882,34.2964,12.0825
6.92268,35.0922,11.9582
7.10914,35.7914,11.8669
7.27504,36.4548,11.8277
7.43528,37.0406,11.8375
7.60756,37.5727,11.8481
7.78793,38.1171,11.8744
7.95941,38.6853,11.9434
8.14591,39.3648,12.0361
8.38571,40.2439,12.1439
8.63958,41.2202,12.3073
8.85569,42.1413,12.5035
9.0574,42.955,12.6606
9.22912,43.6194,12.7802
9.29421,44.0024,12.9133
9.25214,44.103,13.0259
9.15396,44.015,13.0713
9.00681,43.7395,13.1026
8.79092,43.1803,13.1035
8.54556,42.3067,13.0087
8.27144,41.2071,12.8466
7.91634,39.8702,12.6549
7.46563,38.2475,12.4334
6.94146,36.4427,12.1566
6.40953,34.5769,11.8459
5.93575,32.8053,11.5072
5.55139,31.2549,11.1113
5.19306,29.8318,10.7744
4.83484,28.5053,10.5039
4.53948,27.3541,10.2363
4.29059,26.325,10.0006
4.04755,25.3394,9.75995
3.87596,24.4744,9.49263
3.79533,23.7796,9.21396
3.75041,23.1383,8.95005
3.69523,22.4414,8.66927
3.61049,21.6637,8.31815
3.49689,20.8329,7.97758
3.34961,19.9452,7.664
3.17013,18.9687,7.34192
2.98768,17.9638,7.02517
2.79823,16.9916,6.72939
2.6099,16.0655,6.43611
2.47261,15.226,6.14362
2.37534,14.4473,5.86692
2.33276,13.761,5.60187
2.37186,13.2803,5.32884
2.44826,12.9338,5.0754
2.53602,12.6083,4.85886
2.6524,12.3121,4.64515
2.77366,12.0687,4.42202
2.87129,11.8496,4.20583
2.9385,11.6207,3.98923
3.0019,11.396,3.76905
3.0502,11.1633,3.56379
3.06938,10.9251,3.38066
3.07636,10.6917,3.19756
3.07161,10.4307,3.01403
3.05548,10.1429,2.87044
3.01593,9.8145,2.73759
2.94244,9.41367,2.59708
2.84005,8.92884,2.45475
2.71154,8.372,2.30125
2.57229,7.7968,2.15134
2.43316,7.22164,2.0077
2.29107,6.64005,1.87072
2.15011,6.0657,1.7292
2.03656,5.54319,1.58393
1.95554,5.08646,1.47724
1.87688,4.66479,1.41548
1.79194,4.30391,1.4056
1.72474,4.0244,1.44277
1.67001,3.76556,1.51691
1.63191,3.50673,1.62603
1.60694,3.26931,1.76327
1.5912,3.04819,1.9635
1.57223,2.85787,2.27193
1.53438,2.6975,2.64909
1.49076,2.5624,3.04419
1.43674,2.49091,3.45603
1.35602,2.49293,3.87373
1.24848,2.56388,4.30847
1.14444,2.73023,4.78231
1.05988,2.98746,5.28755
0.997742,3.34169,5.81473
0.934547,3.84536,6.37412
0.886202,4.51303,7.02706
0.86689,5.28244,7.75345
0.858525,6.1415,8.51632
0.860242,7.115,9.36257
0.865531,8.19131,10.2594
0.867177,9.32269,11.1768
0.870623,10.4917,12.1167
0.893469,11.7744,13.0651
0.930238,13.1908,14.0604
0.975738,14.7907,15.1513
1.02679,16.4577,16.2824
1.07807,18.0468,17.3748
1.13773,19.6968,18.4432
1.20896,21.4262,19.4933
1.28666,23.1697,20.5016
1.37668,24.8999,21.4546
1.48948,26.586,22.3194
1.62111,28.2604,23.1144
1.76426,29.988,23.8698
1.91088,31.7967,24.5888
2.09465,33.7287,25.2684
2.3771,35.9607,25.8686
2.80238,38.5779,26.3735
3.2164,41.1364,26.8048
3.56154,43.3038,27.1231
3.94053,45.1668,27.2645
4.31105,46.7041,27.2771
4.60093,47.8894,27.2171
4.81905,48.7907,27.0956
4.98825,49.4477,26.9021
5.11828,49.8563,26.6444
5.20934,49.9503,26.3097
5.25288,49.7193,25.8341
5.26515,49.281,25.2811
5.27155,48.7347,24.7072
5.28327,48.1034,24.065
5.31399,47.4651,23.3921
5.40585,46.9705,22.7225
5.55866,46.6038,22.0357
5.68936,46.1816,21.3544
5.78549,45.6144,20.6593
5.87053,44.8636,19.8751
5.96648,44.0514,19.0289
6.08487,43.2871,18.1735
6.19127,42.4088,17.3138
6.25884,41.3807,16.4661
6.3032,40.3208,15.639
6.34797,39.2758,14.8252
6.40531,38.2444,14.031
6.47711,37.2202,13.2481
6.53506,36.1378,12.4604
6.56277,34.9841,11.6883
6.53757,33.6726,10.9192
6.40871,32.0215,10.162
6.1603,30.0486,9.4199
5.96421,28.24,8.70229
5.88919,26.9205,8.10148
5.87688,26.0043,7.6772
5.96642,25.479,7.38352
6.15318,25.2579,7.15047
6.34945,25.1757,6.95143
6.49718,25.2221,6.82169
6.68779,25.4595,6.74658
6.99196,25.9213,6.68212
7.40439,26.6041,6.62842
7.92982,27.4498,6.54993
8.50692,28.318,6.43001
9.08651,29.1062,6.27902
9.62486,29.6725,6.0797
10.0661,29.8318,5.82916
10.4449,29.698,5.55414
10.7909,29.457,5.26489
11.0893,29.1798,4.96011
11.3967,28.9604,4.65829
11.6877,28.8321,4.39969
11.8403,28.7166,4.22917
11.888,28.6376,4.13015
11.918,28.5771,4.03502
11.9432,28.4157,3.9148
11.9653,28.1408,3.76291
12.0168,27.8052,3.58771
12.1231,27.4601,3.41023
12.303,27.1391,3.23735
12.5479,26.7946,3.07027
12.8597,26.4508,2.94024
13.1874,26.1115,2.85883
13.3914,25.6289,2.8004
13.4438,24.9373,2.74931
13.3591,24.0597,2.69849
13.124,23.0104,2.65356
12.7922,21.8438,2.61309
12.4416,20.6705,2.57433
12.1752,19.5872,2.52125
12.0506,18.5774,2.43605
11.9217,17.5559,2.3415
11.7057,16.4897,2.27203
11.4014,15.372,2.23141
10.9746,14.1931,2.22675
10.4709,13.0051,2.2432
9.93685,11.8559,2.27051
9.40558,10.8081,2.30482
8.9165,9.92643,2.35311
8.45922,9.15034,2.42567
8.0946,8.45724,2.50607
7.84161,7.83796,2.59674
7.54581,7.16358,2.69181
7.19077,6.39861,2.78191
6.91039,5.67046,2.84892
6.71255,5.01738,2.88597
6.54572,4.52313,2.9527
6.39678,4.29763,3.08447
6.26352,4.36128,3.2835
6.13099,4.68531,3.57149
5.9822,5.22419,3.92712
5.83104,5.996,4.29354
5.64766,6.94236,4.71004
5.35997,7.95334,5.18328
5.05638,9.09438,5.6546
4.87149,10.4221,6.11252
4.79301,11.8484,6.54712
4.80897,13.3758,6.97431
4.90139,14.9353,7.37228
5.03849,16.4304,7.71679
5.1776,17.7576,8.00152
5.23665,18.8271,8.22375
5.2082,19.7535,8.43114
5.16768,20.632,8.62643
5.13817,21.4925,8.81894
5.1538,22.444,9.03786
5.27017,23.5892,9.26944
5.50695,24.9528,9.50535
5.87713,26.5442,9.74838
6.38884,28.4005,10.0445
6.98286,30.4864,10.3962
7.59533,32.7804,10.7766
8.17709,35.2488,11.1745
8.72725,37.6918,11.5332
9.37759,40.1067,11.8404
10.1849,42.6076,12.1012
11.1393,45.1332,12.2943
12.1345,47.5532,12.4422
13.1025,49.8789,12.5752
14.0663,52.1035,12.69
14.9905,54.0813,12.7926
15.833,55.7389,12.8409
16.5813,57.1019,12.8104
17.2149,58.1512,12.7612
17.748,58.9517,12.6573
18.3374,59.7775,12.4777
18.995,60.659,12.2973
19.6563,61.5214,12.1221
20.4012,62.5249,11.967
21.3014,63.7887,11.8128
22.3404,65.3969,11.7514
23.5395,67.5501,11.8728
25.1146,70.7635,12.0801
27.2395,75.4958,12.499
29.9159,81.6495,13.1402
33.1234,89.2486,14.0066
36.9808,98.7488,15.2437
41.3994,110.338,16.905
46.1623,123.648,18.9991
51.1136,137.882,21.3866
56.0835,152.422,23.9262
60.9287,166.52,26.3182
65.465,179.74,28.5092
69.6475,191.91,30.5438
73.5027,202.654,32.2471
77.0077,212.29,33.7653
79.9836,221.099,35.2889
82.2584,228.627,36.7829
83.5913,234.137,38.1009
83.9977,237.188,39.1531
83.6821,237.574,39.5788
82.8057,235.737,39.2652
81.966,233.302,38.9053
82.2313,233.276,38.7074
85.2617,240.415,39.5245
93.1392,261.436,42.5632
107.9,303.557,49.482
130.315,370.013,61.103
160.18,461.469,77.7196
199.369,585.353,101.257
250.417,750.718,133.452
312.607,956.232,178.089
385.269,1203.26,233.973
467.699,1494.79,297.367
556.89,1823.99,371.919
649.964,2182.13,457.195
743.163,2558.36,551.036
832.924,2939.78,650.679
916.609,3312.52,752.399
992.376,3663.92,851.94
1059.82,3991.25,948.091
1117.47,4291.34,1042.52
1164.37,4558.19,1132.83
1202.9,4796.74,1216.57
1235.48,5013.04,1295.49
1263.24,5208.83,1369.47
1285.84,5381.89,1437.82
1303.06,5531.85,1500.84
1315.85,5663.3,1560.54
1324.84,5777.36,1616.69
1330.41,5869.93,1666.86
1333.19,5938.52,1707.01
1334.29,5987.57,1737.31
1334.73,6022.72,1763.54
1334.65,6044.04,1783.23
1333.62,6050.82,1794.8
1330.98,6043.16,1799.8
1325.49,6019.99,1798.55
1315.59,5979.59,1791.49
1301.35,5924.67,1780.07
1284.28,5862.31,1766.74
1263.79,5792.62,1752.59
1237.95,5712.62,1740.08
1207.36,5624.65,1724.14
1171.57,5522.61,1703.39
1129.16,5397.41,1682.62
1082.39,5253.92,1657.88
1034.77,5106.27,1632.22
989.511,4968.67,1610.04
947.676,4840.28,1589.78
909.642,4716.94,1568.27
876.507,4603.69,1546.94
847.693,4497.02,1524.44
824.266,4395.69,1496.82
807.812,4305.93,1465.88
796.275,4225.51,1435.13
787.621,4149.9,1403.58
781.025,4078.63,1371.73
777.215,4016.62,1340.9
777.26,3967.58,1311.51
781.001,3930.17,1282.7
788.115,3904.9,1255.28
798.391,3896.86,1232.23
811.019,3909.23,1217.9
824.959,3938.19,1212.14
839.261,3978.31,1209.38
852.916,4027.3,1211.36
865.045,4082.24,1219.55
874.575,4138.17,1231.78
880.685,4189.3,1246.41
883.048,4230.5,1261.22
880.966,4256.66,1274.17
873.196,4260.58,1282.7
858.705,4235.08,1283.95
836.973,4174.58,1273.74
808.116,4078.83,1253.52
773.553,3953.09,1225.93
735.516,3803.61,1189.81
694.537,3632.13,1145.69
649.861,3433.2,1090.96
602.139,3203.65,1023.35
553.888,2957.32,947.316
507.164,2711.77,869.747
462.796,2474.29,793.429
421.935,2251.38,720.804
385.124,2048.47,654.305
351.949,1866.05,594.749
322.016,1701.7,541.324
295.072,1554.24,493.351
271.059,1423.16,450.568
249.778,1306.63,412.613
230.421,1201.21,378.624
212.261,1103.31,347.307
195.07,1011.65,318.274
178.786,925.996,291.13
163.558,846.172,265.613
149.207,771.599,242.088
135.432,701.357,220.387
122.539,636.193,200.575
110.851,576.947,182.613
100.441,523.41,166.175
91.3483,475.612,151.198
83.5239,433.354,137.684
76.7336,395.74,125.691
70.8409,362.195,115.054
65.6894,332.459,105.477
61.2372,305.923,97.1228
57.5814,281.754,89.8515
54.4659,259.574,83.4115
51.7324,239.209,77.8703
49.4914,220.485,73.2272
47.7782,203.144,69.3959
46.4804,186.969,66.2014
45.4973,171.807,63.3196
44.8604,157.678,60.5476
44.5286,144.722,57.8356
44.3351,132.904,55.3294
44.0263,121.917,53.0443
43.3725,111.512,50.9195
42.5834,102.141,49.0291
41.816,93.9741,47.3217
40.991,86.473,45.6826
39.8933,79.1289,44.0556
38.4563,71.9271,42.4704
36.7961,64.9268,40.9462
34.9996,58.0675,39.3533
33.27,51.4411,37.7225
31.7414,45.1464,36.169
30.4296,39.3309,34.6838
29.3849,34.1874,33.2986
28.5856,29.5747,31.9373
27.9721,25.2822,30.5577
27.5695,21.5549,29.2556
27.3394,18.551,28.2468
27.261,16.0693,27.6581
27.3879,14.0282,27.1506
27.7026,12.409,26.6652
28.1831,11.1621,26.4143
28.7064,10.412,26.2638
29.0838,10.0848,26.2175
29.3965,9.93803,26.3766
29.6477,9.9025,26.6616
29.7326,9.93579,26.9673
29.5701,10.0095,27.2282
29.1174,10.1173,27.6112
28.409,10.2324,28.332
27.4051,10.3129,29.351
26.1128,10.2825,30.6588
24.7078,10.1547,32.2071
23.419,10.0008,34.0027
22.4124,9.94191,36.0192
21.6537,10.0146,38.1606
21.0653,10.1292,40.3842
20.5434,10.2991,42.6629
20.0995,10.6034,45.0091
19.7837,11.0712,47.3647
19.5873,11.7214,49.6541
19.4688,12.5424,51.8138
19.391,13.4913,53.8464
19.3541,14.6032,55.692
19.3303,15.8176,57.2375
19.3201,17.0784,58.5321
19.3449,18.4995,59.5809
19.4298,20.1964,60.3917
19.5917,22.1289,60.9757
19.8486,24.2828,61.2609
20.1688,26.7039,61.3274
20.52,29.3411,61.2525
20.9584,32.1674,60.9732
21.4202,35.162,60.4693
21.9871,38.2696,59.7011
22.8121,41.586,58.6101
23.7582,45.0983,57.2466
24.7229,48.5761,55.6894
25.6774,51.9703,53.9306
26.7565,55.3024,51.9632
28.0234,58.5928,49.8074
29.3041,61.7658,47.4871
30.6823,64.7047,45.0826
32.3149,67.4903,42.6072
34.2657,70.2183,40.0917
36.521,72.8065,37.5527
39.0063,75.2069,34.9956
41.6908,77.3782,32.4693
44.4459,79.2402,30.0369
47.2895,80.8343,27.7372
50.3875,82.2158,25.5332
53.7327,83.3026,23.4168
57.2871,84.1097,21.4822
61.062,84.6437,19.8005
64.8717,84.8143,18.3132
68.6299,84.5758,16.9935
72.3804,83.9848,15.9114
76.1133,83.0872,15.0813
79.7247,81.8962,14.4619
83.0976,80.4529,14.0197
86.3633,78.8299,13.7851
89.6463,77.076,13.7049
92.9367,75.2221,13.6896
96.1576,73.2631,13.759
99.0715,71.1505,13.9374
101.51,68.8735,14.1501
103.522,66.3974,14.4155
105.028,63.6317,14.7758
106.013,60.6461,15.1816
106.6,57.6623,15.6215
107.01,54.7982,16.0993
107.174,52.0622,16.5854
106.948,49.3618,17.0444
106.574,46.7272,17.474
106.05,44.2528,17.8765
105.13,41.8324,18.2543
103.675,39.3532,18.5941
101.713,36.9288,18.8319
99.323,34.6252,18.9295
96.6438,32.4717,18.9246
93.8682,30.5719,18.8495
91.0334,28.8756,18.6699
88.0192,27.2547,18.4059
84.8178,25.732,18.1266
81.4721,24.3221,17.7705
77.993,23.0745,17.295
74.5877,22.0926,16.7216
71.3654,21.3565,16.0599
68.2385,20.8657,15.2906
65.0996,20.7018,14.4084
62.035,20.8633,13.5344
59.1461,21.3463,12.7429
56.2969,22.1575,11.9859
53.2982,23.1745,11.3627
50.0546,24.2266,10.8934
46.6306,25.2385,10.5295
43.2246,26.1831,10.2968
40.0623,27.1394,10.219
37.0751,28.2231,10.3013
34.1863,29.3575,10.5597
31.483,30.5841,11.0396
29.0017,32.1624,11.7231
26.6063,34.051,12.5673
24.2658,36.2056,13.6526
22.0941,38.7182,14.9769
20.0154,41.3222,16.4366
18.0456,44.0398,17.9945
16.3166,47.065,19.6619
14.8589,50.2712,21.5209
13.6573,53.633,23.6307
12.6611,57.0037,26.095
11.78,60.0514,28.9567
10.9984,62.7438,31.8611
10.2954,65.1378,34.622
9.67164,67.2601,37.3129
9.13715,69.1462,39.8427
8.65715,70.8594,42.1868
8.19092,72.502,44.3681
7.69879,74.0228,46.3852
7.13069,75.3307,48.2447
6.50481,76.3993,49.9472
5.9078,77.2356,51.6777
5.33816,77.8537,53.4352
4.77986,78.1571,55.0937
4.20944,78.05,56.6992
3.63968,77.7495,58.2085
3.15396,77.5683,59.5927
2.76172,77.5289,60.8315
2.46824,77.5779,61.8885
2.25108,77.5775,62.7937
2.07521,77.3795,63.5341
1.95594,77.0654,64.1636
1.87902,76.6321,64.6367
1.79068,75.8733,64.8713
1.6741,74.6933,64.9849
1.54505,73.0236,64.9188
1.4109,70.8399,64.632
1.31708,68.478,64.2257
1.21977,66.0155,63.7676
1.07889,63.2864,63.2086
0.960489,60.3822,62.4254
0.891961,57.2953,61.4653
0.891661,54.1483,60.2421
0.985039,51.2794,58.6342
1.13743,48.6829,56.9801
1.34964,46.2865,55.4978
1.6356,44.1415,54.1642
1.9673,42.2319,53.0375
2.28081,40.4973,52.0504
2.54579,38.818,51.1514
2.78165,37.1895,50.3244
3.02576,35.6645,49.5887
3.27975,34.225,48.9866
3.51496,32.8514,48.2289
3.72159,31.4739,47.2857
3.92988,30.0732,46.2983
4.18943,28.6823,45.2064
4.52695,27.1702,44.0385
4.94282,25.4145,42.7812
5.42718,23.529,41.4755
5.95046,21.6456,40.1673
6.48516,19.8614,38.8315
7.03678,18.2483,37.4907
7.589,16.7963,36.0543
8.0899,15.4607,34.5292
8.52026,14.1496,33.027
8.88826,12.8955,31.5073
9.1933,11.7972,30.0001
9.43583,10.8633,28.5264
9.61758,10.0489,27.0582
9.75961,9.23611,25.577
9.87715,8.41745,24.1151
9.94733,7.65658,22.7231
9.95386,6.95922,21.3409
9.91394,6.30725,19.9654
9.83139,5.68856,18.6425
9.70588,5.14685,17.3541
9.52017,4.69355,16.0558
9.25865,4.28089,14.6887
8.94625,3.91487,13.279
8.64559,3.56368,11.9181
8.40201,3.2115,10.6329
8.19925,2.88848,9.44214
7.99572,2.58923,8.32306
7.78141,2.32025,7.23421
7.5758,2.06747,6.25413
7.3814,1.83539,5.37596
7.16615,1.65414,4.55473
6.88533,1.54639,3.81559
6.53264,1.51059,3.15228
6.11591,1.50814,2.57329
5.6473,1.51031,2.09177
5.17003,1.5046,1.72201
4.68919,1.48365,1.46052
4.18014,1.44239,1.26088
3.6508,1.3767,1.10404
3.16518,1.28521,1.0137
2.75883,1.18927,0.97129
2.42437,1.11536,0.964688
2.12588,1.05753,1.01321
1.85401,1.01547,1.11728
1.63724,0.953765,1.254
1.48611,0.880752,1.40073
1.36167,0.840997,1.5597
1.25019,0.854416,1.73575
1.15728,0.932675,1.94119
1.08579,1.07344,2.16184
1.04235,1.2934,2.3676
1.02014,1.6014,2.57519
1.00967,1.94301,2.79771
1.00934,2.31059,3.01278
1.02359,2.6757,3.19888
1.0454,3.0161,3.36976
1.05834,3.33266,3.52364
1.05945,3.59272,3.65456
1.04389,3.7828,3.75703
1.01637,3.91417,3.82338
0.991172,4.01379,3.88257
0.981494,4.1131,3.94166
1.00079,4.24031,3.9923
1.06444,4.42103,4.02454
1.17844,4.6417,4.03309
1.3373,4.9124,4.0321
1.51783,5.26364,4.0209
1.68425,5.67495,3.98563
1.87916,6.1681,3.94241
2.16794,6.81827,3.91426
2.62863,7.68695,3.90537
3.25197,8.69113,3.88979
3.9054,9.7386,3.8584
4.51963,10.7924,3.80454
5.0822,11.7519,3.71174
5.59713,12.5893,3.58033
6.06522,13.3893,3.4281
6.48371,14.1592,3.27424
6.91077,14.8685,3.11275
7.34042,15.4865,2.93235
7.69805,15.9678,2.73411
7.99268,16.2836,2.52359
8.30249,16.4142,2.31373
8.60402,16.3801,2.10275
8.82058,16.2456,1.87934
8.95177,16.0452,1.66557
9.00856,15.8125,1.48732
9.01295,15.5579,1.33424
8.98803,15.2782,1.21215
8.95375,15.0209,1.12733
8.95222,14.8266,1.09465
9.0289,14.6888,1.13242
9.17744,14.5845,1.20465
9.36937,14.4866,1.27881
9.56112,14.3663,1.36674
9.74263,14.1942,1.47977
9.94456,13.9821,1.62889
10.1351,13.7182,1.81323
10.3498,13.3841,2.03398
10.7204,13.0236,2.28983
11.2659,12.6468,2.54943
11.885,12.169,2.80448
12.4447,11.5098,3.05037
12.9994,10.7848,3.29411
13.6522,10.1244,3.51928
14.4241,9.56804,3.69823
15.2288,9.11556,3.85369
15.852,8.68293,3.95681
16.2384,8.22149,4.01161
16.4081,7.73235,4.05243
16.3815,7.1944,4.08476
16.2358,6.63173,4.11406
16.0911,6.11537,4.12412
15.9476,5.69959,4.12086
15.7473,5.39374,4.12546
15.5546,5.19532,4.12678
15.4475,5.10868,4.12671
15.3863,5.06479,4.13076
15.3659,5.05436,4.14178
15.387,5.10335,4.14843
15.4164,5.19606,4.15564
15.433,5.30033,4.16659
15.4099,5.40247,4.18016
15.3306,5.4971,4.22032
15.1996,5.60859,4.31483
15.0261,5.77533,4.49581
14.84,5.97391,4.73512
14.6502,6.14471,5.01079
14.4453,6.25548,5.33374
14.2706,6.32256,5.64651
14.073,6.35621,5.88604
13.6914,6.34809,6.06237
13.1168,6.26313,6.21108
12.4196,6.11039,6.33155
11.6714,5.91421,6.5017
10.8584,5.63734,6.77691
9.95165,5.25203,7.08572
8.97567,4.75244,7.43049
8.05309,4.22571,7.8366
7.35096,3.77125,8.24876
6.91891,3.39231,8.62593
6.74091,3.09279,8.98099
6.75867,2.89673,9.31242
6.93526,2.78797,9.62489
7.22806,2.72881,9.93096
7.62495,2.6995,10.2211
8.12614,2.69099,10.5151
8.70571,2.67663,10.8288
9.31617,2.62377,11.1481
9.93535,2.56505,11.4555
10.5307,2.50703,11.7039
11.0632,2.42884,11.9081
11.4586,2.31692,12.068
11.7055,2.19549,12.1558
11.8934,2.09087,12.1748
12.0499,2.006,12.115
12.1938,1.90129,11.9883
12.3608,1.73224,11.8093
12.5478,1.5262,11.6135
12.7389,1.34505,11.4088
12.9138,1.21852,11.1381
13.0484,1.1397,10.8571
13.156,1.0906,10.6112
13.2799,1.04965,10.3982
13.3962,1.01713,10.2356
13.4621,0.99178,10.1073
13.4348,0.968946,9.95772
13.2571,0.9632,9.72406
12.9591,0.989532,9.46145
12.5878,1.05426,9.21376
12.1778,1.13624,8.94829
11.7772,1.23226,8.7293
11.3462,1.35138,8.55686
10.8787,1.49738,8.37922
10.3996,1.65256,8.1929
9.9021,1.80242,7.96896
9.38851,1.93778,7.71041
8.85566,2.02852,7.44737
8.27384,2.07085,7.16356
7.60998,2.06656,6.85121
6.92982,2.03142,6.53325
6.2943,1.97246,6.23692
5.71476,1.88951,6.01249
5.23487,1.80716,5.85838
4.94649,1.76021,5.77801
4.8568,1.74234,5.79992
4.87635,1.7315,5.91647
4.97089,1.7221,6.12625
5.10263,1.72113,6.39616
5.22637,1.73017,6.72534
5.35887,1.74176,7.09001
5.50587,1.75534,7.45032
5.64075,1.77648,7.87848
5.76741,1.80419,8.35767
5.91266,1.83407,8.86075
6.09529,1.86307,9.3864
6.293,1.89488,9.92784
6.52383,1.93238,10.4999
6.82582,1.96643,11.0867
7.22427,1.98895,11.69
7.73807,1.98184,12.3306
8.3697,1.92106,12.9285
9.14503,1.8362,13.4215
10.0174,1.74357,13.8882
10.9349,1.63162,14.3696
11.8339,1.49303,14.8581
12.6435,1.34016,15.3339
13.3772,1.18525,15.8109
14.0522,1.03143,16.3377
14.6487,0.904723,16.9245
15.141,0.813698,17.5384
15.5382,0.752038,18.0924
15.8451,0.714802,18.582
16.081,0.711263,19.0666
16.2541,0.744691,19.5585
16.3769,0.809578,20.0832
16.4514,0.931815,20.6433
16.4675,1.1139,21.2158
16.4759,1.28163,21.7622
16.5223,1.38243,22.2348
16.6512,1.42751,22.6505
16.7991,1.45381,22.9299
16.8433,1.48765,23.0856
16.7614,1.54717,23.2117
16.5702,1.64588,23.261
16.3039,1.78176,23.2213
15.9572,1.97386,23.155
15.5174,2.26385,23.099
15.0115,2.69857,23.035
14.4694,3.32372,22.9767
13.9019,4.09268,22.9541
13.2985,5.00557,22.9737
12.6558,6.04413,22.987
11.9495,7.17537,22.9853
11.1467,8.46234,22.9723
10.2788,9.74418,22.9014
9.38999,10.95,22.8136
8.57483,12.2522,22.7417
7.94321,13.6877,22.6507
7.50016,15.1759,22.4799
7.18328,16.7089,22.2842
6.9418,18.2624,22.1016
6.79594,19.8174,21.8849
6.74404,21.4676,21.7735
6.75807,23.2323,21.8044
6.77764,24.9792,21.8632
6.76596,26.6405,21.9438
6.69502,28.2015,22.0848
6.57734,29.6547,22.271
6.4699,31.0506,22.4549
6.34033,32.4704,22.596
6.13018,33.9253,22.6933
5.83936,35.4746,22.7212
5.57165,37.1396,22.7348
5.42191,38.8681,22.7415
5.40814,40.6344,22.6713
5.51999,42.3977,22.5611
5.74014,44.1757,22.4505
6.07769,45.9529,22.3259
6.49898,47.6096,22.1102
6.94169,49.0164,21.8147
7.36507,50.0913,21.4643
7.76978,50.8885,20.9665
8.15791,51.45,20.3703
8.52435,51.8149,19.7623
8.85243,52.0012,19.1723
9.06846,51.8765,18.6678
9.20124,51.6584,18.252
9.34087,51.5464,17.8975
9.46529,51.4242,17.6009
9.52214,51.2489,17.4007
9.45989,51.0501,17.3907
9.30227,50.8206,17.4464
9.17974,50.6667,17.473
9.09706,50.5906,17.5382
9.01783,50.4163,17.5361
8.91908,50.1263,17.4558
8.82138,49.8033,17.3653
8.78881,49.5208,17.2437
8.86212,49.4028,17.0282
9.03879,49.4341,16.7037
9.25909,49.4615,16.32
9.49304,49.449,15.9158
9.70483,49.3967,15.49
9.8428,49.1958,15.0905
9.88985,48.7798,14.7252
9.89639,48.157,14.3372
9.87,47.3572,13.9361
9.79315,46.3812,13.538
9.63056,45.1774,13.1306
9.36731,43.7916,12.6874
9.08547,42.3543,12.2552
8.82001,40.945,11.8379
8.60159,39.6094,11.4015
8.51371,38.3964,11.0143
8.56964,37.3058,10.6561
8.723,36.3452,10.2988
8.98852,35.5359,9.97575
9.43783,34.9621,9.66916
10.0161,34.5751,9.35884
10.6479,34.254,9.02597
11.3725,33.9372,8.65722
12.1511,33.5893,8.27258
12.9399,33.2597,7.83954
13.6981,32.8588,7.36908
14.3869,32.2463,6.90125
15.014,31.4151,6.44577
15.5678,30.4232,6.05391
16.0243,29.2583,5.70062
16.3763,27.9847,5.34988
16.6896,26.6819,4.99875
17.0048,25.2704,4.6574
17.3142,23.7277,4.37555
17.579,22.154,4.16275
17.7446,20.5876,4.03117
17.8477,19.0826,4.00346
17.9206,17.6914,4.0451
17.9789,16.4296,4.14133
17.9917,15.3312,4.35839
17.9171,14.4032,4.73573
17.7765,13.6859,5.18228
17.6363,13.1995,5.67194
17.5183,12.8819,6.25953
17.3661,12.7137,6.94059
17.1995,12.7137,7.68118
17.0054,12.9041,8.47447
16.6879,13.2973,9.33398
16.2461,13.8812,10.2434
15.744,14.5743,11.148
15.18,15.3483,12.0335
14.5354,16.2324,12.9261
13.8378,17.1379,13.8326
13.0874,17.9288,14.7373
12.2402,18.6091,15.6142
11.3276,19.233,16.4437
10.398,19.7119,17.2392
9.49724,20.1335,18.0042
8.62047,20.6265,18.7583
7.77487,21.2844,19.5081
7.01426,22.211,20.2503
6.38159,23.3906,20.9775
5.90483,24.7548,21.6736
5.50176,26.2333,22.3663
5.11098,27.8557,23.039
4.77787,29.7934,23.6067
4.56023,31.9936,24.0617
4.50397,34.3559,24.4607
4.60958,36.9814,24.856
4.85223,39.8389,25.2719
5.13923,42.8272,25.7066
5.42662,45.7958,26.1177
5.74538,48.6084,26.4945
6.09038,51.2196,26.8398
6.43382,53.649,27.1793
6.7379,55.903,27.4591
7.02808,57.9777,27.6441
7.30783,59.8684,27.7978
7.56802,61.4878,27.8757
7.83306,62.8139,27.8585
8.10784,63.8399,27.7179
8.40488,64.7387,27.5449
8.74462,65.6756,27.4071
9.10894,66.4706,27.2312
9.44607,67.0274,27.0043
9.78402,67.5572,26.7117
10.2013,68.1554,26.3552
10.7069,68.831,26.0057
11.2705,69.6641,25.6783
11.8949,70.5939,25.3574
12.5588,71.5164,25.0016
13.1997,72.2577,24.5713
13.7987,72.7569,24.0754
14.3816,73.1241,23.5331
14.9776,73.4008,22.9718
15.5758,73.5487,22.3643
16.1573,73.4538,21.693
16.6415,73.003,21.0269
17.0039,72.2777,20.4005
17.2902,71.4019,19.768
17.5353,70.3314,19.0827
17.772,69.0479,18.3221
18.0082,67.6235,17.5113
18.3177,66.2503,16.6878
18.7043,65.0117,15.8317
19.0889,63.863,14.994
19.4348,62.806,14.1764
19.7398,61.882,13.4052
20.0511,61.1119,12.6939
20.4076,60.4645,11.9668
20.8427,59.9056,11.241
21.3608,59.322,10.5053
21.9284,58.7253,9.80673
22.5599,58.128,9.12211
23.2605,57.4005,8.40108
24.0457,56.567,7.68863
24.9146,55.7353,7.00626
25.6715,54.7719,6.39315
26.1702,53.5697,5.87259
26.4119,52.1043,5.394
26.4518,50.3942,4.92961
26.303,48.5531,4.49169
25.9728,46.642,4.09421
25.5713,44.7871,3.76478
25.1349,42.9936,3.49066
24.6419,41.2075,3.24105
24.1093,39.4606,3.01649
23.5759,37.7763,2.8264
23.0294,36.2042,2.68551
22.4901,34.7087,2.56813
21.9861,33.2652,2.45704
21.4949,31.8333,2.36832
20.987,30.3413,2.29903
20.419,28.8198,2.24162
19.8181,27.2879,2.17013
19.1375,25.6924,2.07595
18.3836,24.0674,1.96011
17.6625,22.4888,1.8216
16.9915,20.9304,1.65778
16.3766,19.3496,1.45608
15.7631,17.6989,1.23478
15.1184,16.0046,1.02476
14.4243,14.3609,0.857694
13.6507,12.8385,0.754158
12.8133,11.4063,0.695755
11.8681,9.9415,0.659533
10.7862,8.44681,0.640611
9.56891,7.01948,0.642463
8.27975,5.71478,0.648219
7.09681,4.59129,0.655528
6.08486,3.66786,0.666684
5.24278,2.94906,0.674082
4.56433,2.42738,0.679179
4.04045,2.06104,0.680745
3.65901,1.81341,0.679311
3.35669,1.65531,0.670492
3.10812,1.5592,0.652516
2.91946,1.4995,0.63491
2.74516,1.45114,0.611104
2.54963,1.40372,0.576787
2.34557,1.35644,0.537043
2.14379,1.30372,0.501419
1.93558,1.2435,0.462678
1.71037,1.18261,0.4123
1.45648,1.11945,0.348909
1.21017,1.06811,0.282816
1.02237,1.05222,0.234717
0.89359,1.0694,0.205083
0.805066,1.10325,0.191991
0.742678,1.12797,0.188339
0.711755,1.14104,0.186921
0.724153,1.16712,0.186056
0.783321,1.20811,0.187099
0.857245,1.25644,0.18994
0.911281,1.29366,0.191725
0.95475,1.31272,0.192835
1.00256,1.32722,0.193029
1.04127,1.33088,0.198179
1.06999,1.32482,0.211738
1.0968,1.31785,0.229818
1.11693,1.31077,0.252654
1.1581,1.2991,0.273622
1.27118,1.31106,0.288465
1.40485,1.33864,0.298948
1.5101,1.33879,0.309113
1.5882,1.31713,0.324214
1.64815,1.2892,0.337876
1.70371,1.2653,0.348135
1.74504,1.24333,0.358748
1.76378,1.22132,0.371835
1.77771,1.20566,0.394836
1.79403,1.19608,0.422767
1.80937,1.19276,0.451388
1.82354,1.19308,0.477582
1.83327,1.1909,0.491329
1.84081,1.18847,0.50073
1.84877,1.18887,0.514146
1.84011,1.18014,0.525557
1.80462,1.14063,0.528526
1.75633,1.06959,0.528649
1.70089,0.973418,0.531808
1.63498,0.873653,0.540124
1.55973,0.800876,0.553231
1.47932,0.756382,0.570231
1.37909,0.739629,0.599657
1.27759,0.755622,0.64516
1.22022,0.837634,0.690464
1.20935,1.01934,0.736492
1.22192,1.27847,0.788368
1.28782,1.60166,0.83129
1.41214,2.00383,0.863431
1.5758,2.46644,0.892147
1.78294,2.95805,0.92109
2.00636,3.53126,0.95552
2.23011,4.18684,0.988259
2.53084,4.90166,1.01589
2.92625,5.73703,1.04935
3.36618,6.68446,1.09269
3.85457,7.75285,1.15377
4.37534,8.95671,1.24533
4.93217,10.2541,1.3611
5.55765,11.6638,1.49013
6.22852,13.1583,1.6209
6.94463,14.6802,1.74256
7.66851,16.2574,1.85554
8.35798,17.8451,1.98876
9.06223,19.4634,2.15519
9.80383,21.1611,2.3435
10.5301,22.8443,2.55185
11.145,24.3874,2.76465
11.6597,25.7767,2.98598
12.1462,27.1121,3.19067
12.6431,28.4815,3.37964
13.1595,29.8973,3.56874
13.7064,31.3409,3.74766
14.2558,32.7421,3.91613
14.7627,34.0406,4.06538
15.2957,35.2896,4.17691
15.8864,36.5506,4.28652
16.5304,37.8491,4.39143
17.243,39.1157,4.45859
17.9101,40.2844,4.52683
18.5252,41.3505,4.5988
19.1052,42.3007,4.65617
19.5809,43.1945,4.72779
19.9031,43.9856,4.839
20.0246,44.6325,4.99749
19.9792,45.1952,5.2186
19.8349,45.678,5.4911
19.6557,46.13,5.77107
19.4659,46.5529,6.05601
19.25,46.9086,6.34785
18.9889,47.1446,6.63518
18.6585,47.2533,6.93821
18.2712,47.2901,7.26784
17.8375,47.2574,7.57154
17.4208,47.1811,7.84478
17.1151,47.2409,8.09831
16.9055,47.543,8.4538
16.7728,48.0872,8.89042
16.8127,49.0826,9.24909
17.1223,50.7877,9.69195
17.7052,53.3125,10.325
18.6661,56.9295,11.1842
20.2172,62.3267,12.3713
22.3696,69.9178,13.9969
24.9992,79.5433,16.141
28.0193,90.7614,18.666
31.312,103.038,21.4777
34.5825,115.789,24.5677
37.5914,128.232,27.697
40.3408,140.424,30.9001
42.8928,152.295,34.1008
45.3226,163.194,36.9802
47.4623,172.934,39.5302
49.3138,181.892,41.9849
50.8275,189.886,44.3185
51.7206,195.737,46.3322
51.9694,198.917,47.6109
51.725,199.573,47.8347
51.3739,198.473,47.7278
51.5961,197.398,47.4231
53.6334,199.635,47.194
59.3666,210.106,47.7428
70.7897,235.665,50.4141
89.3254,282.503,56.6768
115.381,352.068,66.9737
150.281,449.254,82.5134
197.454,587.81,106.537
257.501,769.656,142.585
328.125,988.762,186.711
408.257,1248.68,237.254
495.898,1546.98,299.088
590.277,1880.83,371.598
691.637,2247.7,453.216
796.527,2632.66,540.248
898.724,3020.16,630.648
992.622,3393.69,722.586
1076.31,3741.79,812.225
1150.75,4064.92,900.364
1215.93,4361.06,985.658
1271.67,4628.57,1064.6
1319.12,4871.73,1139.72
1359.5,5093.38,1211.73
1392.84,5291.12,1279.69
1419.72,5465.18,1342.86
1441.28,5618.98,1402.02
1457.37,5752.68,1457.7
1468.47,5865.25,1509.72
1475.35,5954.84,1554.21
1478.71,6021.15,1590.01
1480.24,6070.34,1622.63
1480.69,6103.9,1649.06
1480.11,6120.4,1666.29
1478.32,6122.42,1676.38
1474.42,6111.01,1680.62
1467.52,6084.74,1679.22
1457.37,6044.04,1672.54
1444.57,5995.12,1662.79
1428.41,5940.16,1652.09
1406.25,5871.45,1641.4
1378.64,5792.1,1626.3
1348.1,5708.73,1609.94
1313.38,5611.47,1595.51
1274.92,5498.76,1577.13
1234.14,5375.43,1556.13
1191.02,5247.94,1535.62
1147.73,5130.63,1520.41
1107.41,5023.29,1507.92
1072.98,4924.5,1494.02
1044.57,4835.19,1479.31
1019.93,4748.72,1460.4
999.271,4665.66,1437.41
983.321,4588.02,1414.01
970.949,4513.6,1388.66
961.356,4441.88,1361.4
955.386,4378.47,1333.75
953.335,4327.63,1307.64
954.953,4288.72,1283.23
960.493,4261.61,1259.81
969.429,4247.87,1237.76
981.283,4250.71,1221.31
995.57,4271.63,1211.86
1010.73,4305.22,1204.4
1025.39,4348.21,1201.24
1038.46,4399.39,1205.38
1049.16,4453.88,1214.44
1056.82,4506.59,1226.4
1060.42,4552.54,1239.95
1058.99,4586.08,1253.46
1051.69,4600.03,1264.57
1037.91,4587.6,1270.07
1017.25,4543.94,1265.74
988.815,4464.76,1252.69
952.313,4349.66,1231.83
910.042,4205.28,1201.72
863.736,4035.66,1163.46
812.9,3839.09,1116.12
757.372,3611.92,1058.38
698.199,3354.57,989.279
638.191,3082.19,913.415
579.858,2812.32,836.836
524.933,2555.34,762.599
474.837,2317.87,693.325
429.558,2102.23,630.484
388.883,1908.96,574.059
353.233,1737.07,523.282
322.309,1584.09,477.237
295.068,1446.78,435.431
270.481,1321.27,397.056
247.666,1204.86,361.264
226.39,1096.85,328.094
206.676,996.687,297.221
188.604,904.111,268.371
171.98,818.446,241.83
156.439,738.806,217.42
142.226,666.264,195.145
129.739,601.671,174.906
118.766,544.071,156.725
109.076,492.797,140.644
100.68,447.542,126.381
93.4025,407.378,113.765
87.1669,371.912,102.462
81.9572,340.983,92.353
77.4206,313.444,83.5082
73.2419,288.536,75.6708
69.4903,265.982,68.6549
66.1762,245.469,62.3784
63.0892,226.859,56.909
60.0343,209.768,52.315
56.9258,193.776,48.2802
53.8527,178.77,44.661
50.8354,164.567,41.368
48.0145,151.199,38.1592
45.5334,138.937,35.1868
43.3371,127.811,32.5534
41.4283,117.601,30.1165
39.7229,107.908,27.7512
37.9243,98.3872,25.4674
35.8278,89.0013,23.3982
33.5711,79.9618,21.5724
31.257,71.3122,19.9127
28.9202,63.0876,18.3442
26.7227,55.6135,16.8141
24.7936,49.1732,15.4874
23.1769,43.9332,14.4979
22.0215,40.0319,13.7147
21.2671,37.1853,13.0866
20.7147,34.9727,12.5714
20.3287,33.3352,12.183
20.0753,32.1723,11.9206
19.919,31.2629,11.7113
19.857,30.563,11.5444
19.8805,30.0327,11.3759
19.9798,29.6466,11.2446
20.163,29.4267,11.2868
20.4237,29.3262,11.5157
20.7539,29.2932,11.8454
21.1514,29.2916,12.2557
21.5917,29.2864,12.7806
22.0753,29.2483,13.4095
22.5582,29.1608,14.1161
22.9084,29.0064,14.8647
23.0247,28.7759,15.6501
22.9617,28.4235,16.5105
22.8295,27.9207,17.4461
22.7048,27.3009,18.4178
22.5977,26.5773,19.4296
22.4952,25.7319,20.4684
22.3487,24.7356,21.5013
22.1773,23.5928,22.4863
22.0573,22.333,23.3983
21.8938,20.9527,24.2172
21.6831,19.5004,24.9284
21.5447,18.0466,25.5713
21.4501,16.5552,26.0927
21.3659,14.957,26.3802
21.2184,13.1314,26.4257
20.8569,10.9759,26.303
20.4123,8.75846,26.0408
20.0904,6.81876,25.6445
19.8987,5.21063,25.1241
19.8056,3.96505,24.4868
19.8038,3.1412,23.7901
19.86,2.73976,23.136
19.9472,2.81245,22.5465
20.1356,3.44549,21.989
20.5069,4.67016,21.4026
21.062,6.3459,20.7155
21.7888,8.21818,19.9558
22.606,10.1672,19.1366
23.5086,12.1283,18.247
24.4489,13.9915,17.3251
25.3649,15.6571,16.4045
26.5203,17.2192,15.5323
28.0058,18.6744,14.6926
29.5586,19.8976,13.8896
31.0586,20.9233,13.1392
32.4438,21.8246,12.4325
33.6789,22.6356,11.7259
34.7861,23.3688,11.0436
35.8717,24.0211,10.4368
37.0449,24.5868,9.98726
38.3716,25.1129,9.78944
39.9582,25.658,9.77975
41.9414,26.2724,9.85043
44.3256,26.9948,9.97698
47.0221,27.8039,10.1964
49.9936,28.6474,10.5422
53.1942,29.5177,10.99
56.696,30.4351,11.4917
60.4886,31.385,12.0168
64.434,32.367,12.5786
68.436,33.3501,13.1992
72.5158,34.3393,13.8675
76.6464,35.3382,14.4959
80.7911,36.2769,15.0883
84.9387,37.1284,15.6805
88.9388,37.7524,16.2379
92.5591,37.8943,16.7546
95.6836,37.6482,17.27
98.4194,37.2944,17.8063
100.801,36.8778,18.3316
102.745,36.4111,18.8429
104.347,36.0283,19.3161
105.781,35.8995,19.6619
106.89,35.9399,19.8793
107.631,36.1804,19.9854
108.271,36.7415,19.9625
108.806,37.4855,19.8321
109.168,38.3165,19.6121
109.359,39.1353,19.345
109.396,39.9444,19.0306
109.28,40.8327,18.6415
108.904,41.7753,18.1285
108.155,42.6795,17.4249
107.006,43.4911,16.6108
105.467,44.2584,15.7983
103.588,45.0415,14.9688
101.397,45.8307,14.1279
99.0093,46.6502,13.3126
96.535,47.497,12.4971
93.9231,48.3847,11.6915
91.1609,49.3746,10.943
88.2317,50.3533,10.2503
85.132,51.2467,9.60558
81.8115,52.0148,9.03049
78.2897,52.6404,8.61842
74.6439,53.2683,8.31234
70.8747,53.8839,8.07266
67.0193,54.436,7.97536
63.1688,55.0413,8.02307
59.4191,55.6786,8.20819
55.6925,56.3459,8.5204
52.0086,57.0626,9.01287
48.4664,57.8439,9.67969
45.0419,58.7319,10.4852
41.6868,59.6093,11.5589
38.4503,60.5211,12.9393
35.3833,61.533,14.5595
32.4245,62.6292,16.3497
29.6079,63.8809,18.304
27.0154,65.2165,20.397
24.6887,66.7058,22.5118
22.6019,68.455,24.7209
20.6927,70.4511,27.0642
19.0321,72.8774,29.4066
17.6783,75.7898,31.7626
16.53,78.9388,34.1869
15.4343,81.8783,36.6535
14.3066,84.3559,39.1272
13.2313,86.4105,41.5288
12.1852,88.0322,43.8915
11.1189,89.3873,46.3184
10.0321,90.4926,48.7739
8.90615,91.176,51.2255
7.85017,91.5368,53.5236
6.94109,91.7939,55.6714
6.18372,91.9971,57.7848
5.56009,92.0792,59.7368
5.02176,92.0021,61.5281
4.53934,91.9065,63.2493
4.10429,91.9125,64.9131
3.72239,91.9486,66.4598
3.39451,91.9481,67.8129
3.10505,91.8783,69.1367
2.86514,91.7733,70.4165
2.6751,91.6318,71.5158
2.51755,91.369,72.4455
2.39793,90.9607,73.1137
2.31587,90.3646,73.476
2.24541,89.5014,73.5949
2.16899,88.3371,73.5067
2.09615,86.9343,73.2612
2.03704,85.4717,72.9316
1.96993,83.9586,72.5886
1.87837,82.2599,72.0936
1.75137,80.2306,71.3033
1.541,77.6986,70.4054
1.22687,74.7203,69.4336
0.898978,71.5997,68.3243
0.648419,68.7475,67.083
0.516312,66.307,65.6654
0.472313,64.1389,64.1234
0.441335,62.1444,62.5595
0.408737,60.1578,61.0081
0.38994,58.1673,59.4487
0.387952,56.3358,57.824
0.396095,54.6822,56.2557
0.409639,53.0248,54.705
0.431262,51.3211,53.0702
0.463799,49.664,51.4379
0.502632,48.059,49.8047
0.557519,46.3511,48.1109
0.618812,44.4335,46.2559
0.677683,42.4081,44.3333
0.748083,40.3608,42.4902
0.838108,38.2754,40.5596
0.938315,36.1715,38.5149
1.04725,34.0722,36.4826
1.17153,31.9799,34.4946
1.30724,29.9732,32.583
1.44731,28.0551,30.7207
1.58038,26.2106,28.8972
1.71013,24.491,27.1447
1.82827,22.8698,25.3954
1.92097,21.2631,23.6148
2.00788,19.6564,21.8447
2.10025,18.0642,20.1366
2.19464,16.5604,18.5969
2.30091,15.168,17.1732
2.43355,13.8265,15.8107
2.57425,12.4783,14.5198
2.68727,11.0604,13.3126
2.76502,9.5783,12.261
2.82755,8.17289,11.3841
2.92482,6.9772,10.5361
3.0498,5.98543,9.59458
3.19099,5.15196,8.61089
3.36197,4.41105,7.65721
3.53168,3.74434,6.75361
3.69611,3.20773,5.91664
3.86318,2.84598,5.14286
4.04047,2.64218,4.4555
4.21744,2.52486,3.85393
4.37672,2.48013,3.3065
4.52558,2.49978,2.88242
4.65959,2.55609,2.55132
4.77717,2.64857,2.22963
4.88169,2.76847,1.93077
4.97914,2.92057,1.65507
5.06047,3.09386,1.4059
5.12433,3.2955,1.18868
5.19415,3.54725,0.990001
5.27495,3.83,0.825532
5.36323,4.13332,0.695059
5.45496,4.4544,0.588503
5.55374,4.78196,0.50337
5.66921,5.09452,0.430969
5.79999,5.39908,0.361263
5.92893,5.69177,0.299223
6.01156,5.91464,0.247751
6.01884,6.06197,0.210038
5.97166,6.17696,0.186458
5.91445,6.28055,0.16991
5.86398,6.37597,0.163939
5.79204,6.46672,0.172719
5.7028,6.56576,0.206367
5.62788,6.70482,0.25885
5.56781,6.8817,0.326033
5.48414,7.06371,0.419052
5.36883,7.25902,0.527096
5.25194,7.48396,0.637796
5.13893,7.71124,0.743843
5.03916,7.94457,0.842333
4.94991,8.20174,0.936825
4.87452,8.48981,1.02979
4.83919,8.82657,1.11317
4.87015,9.19617,1.17405
4.95931,9.56483,1.21451
5.00943,9.83983,1.24322
4.96888,9.987,1.26947
4.87829,10.0599,1.30404
4.77276,10.1107,1.35359
4.65247,10.1617,1.41126
4.51035,10.175,1.47708
4.33123,10.1083,1.54555
4.11081,9.90933,1.61982
3.92106,9.59582,1.69051
3.78834,9.27933,1.71708
3.6498,8.99562,1.71563
3.45311,8.70221,1.71128
3.23102,8.41031,1.71142
3.05579,8.22599,1.72745
2.96148,8.20424,1.77518
2.91931,8.32296,1.86461
2.89589,8.58654,2.01208
2.90619,9.051,2.2546
2.93064,9.69464,2.62425
2.92674,10.4178,3.14141
2.88943,11.189,3.83243
2.83799,12.0102,4.59299
2.79133,12.7705,5.32648
2.73584,13.3769,6.02431
2.67661,13.7539,6.68413
2.65419,13.8199,7.31893
2.71157,13.6276,7.91374
2.8634,13.2829,8.48442
3.0777,12.8548,9.06865
3.34841,12.3417,9.66844
3.69528,11.7854,10.296
4.15225,11.2384,10.9699
4.81254,10.7971,11.6524
5.72256,10.5095,12.3257
6.86267,10.3177,12.9732
8.19248,10.2085,13.5639
9.62663,10.162,14.0958
11.0753,10.1528,14.5548
12.4898,10.2316,14.8989
13.8758,10.4701,15.1442
15.0894,10.8305,15.3264
16.0455,11.1876,15.4691
16.8562,11.5409,15.5715
17.5267,11.9204,15.6229
18.0318,12.2889,15.634
18.4179,12.5979,15.6156
18.6906,12.8027,15.5624
18.8555,12.8668,15.4746
18.9411,12.7894,15.3702
18.9614,12.5607,15.2277
18.9656,12.1916,14.9659
18.9822,11.7212,14.5732
18.9974,11.149,14.0347
19.0027,10.503,13.4825
19.0001,9.89368,13.0078
19.0016,9.4604,12.6027
19.0047,9.31632,12.3164
18.9636,9.52074,12.13
18.8136,9.99982,12.096
18.5317,10.5878,12.2095
18.162,11.2349,12.321
17.7049,11.8885,12.444
17.1362,12.4448,12.5926
16.4549,12.8972,12.716
15.6574,13.2283,12.8422
14.7517,13.4303,12.9471
13.7538,13.5129,13.0876
12.6805,13.4691,13.2728
11.5826,13.3076,13.457
10.5778,13.0696,13.706
9.74476,12.7773,14.0266
9.05601,12.4342,14.3601
8.57223,12.0732,14.6969
8.35296,11.7299,15.0736
8.34837,11.4059,15.4862
8.59411,11.1008,15.9049
9.01751,10.8192,16.3092
9.46205,10.5398,16.7083
9.92518,10.249,17.1084
10.4689,9.95943,17.5348
11.1219,9.65883,17.9667
11.8429,9.31401,18.3242
12.5729,8.93664,18.6388
13.3211,8.55717,18.9111
14.0945,8.17591,19.1529
14.9666,7.79976,19.3311
15.9633,7.46532,19.4097
