Lead1,Lead2,Lead3
0,0,0
-1282.03,-1384.46,-82.8458
-1546.17,-1669.48,-99.6538
-1401.44,-1512.98,-90.0588
-1334.27,-1440.22,-85.6026
-1235.22,-1332.95,-78.8642
-1161.58,-1253.24,-73.7948
-1076.81,-1161.68,-68.3622
-1004.87,-1084.15,-63.9849
-929.57,-1003.13,-59.2934
-861.755,-930.109,-55.0394
-794.694,-857.847,-50.9719
-731.882,-790.186,-47.0903
-671.753,-725.435,-43.3864
-614.137,-663.576,-40.061
-559.474,-604.863,-36.7881
-508.027,-549.326,-33.4445
-459.453,-496.857,-30.251
-413.312,-446.754,-27.1093
-369.281,-398.902,-24.0917
-327.219,-353.488,-21.2212
-287.293,-310.283,-18.5145
-249.623,-269.449,-16.0537
-213.891,-230.963,-13.8575
-179.867,-194.324,-11.7612
-147.615,-159.398,-9.5708
-117.117,-126.416,-7.54749
-88.3379,-95.2852,-5.6167
-61.1191,-65.8438,-3.73059
-35.2578,-37.9316,-2.04456
-10.9668,-11.5508,-0.353882
11.9023,13.2129,1.21826
33.543,36.541,2.52844
53.668,58.3438,3.91467
72.1973,78.418,5.23181
89.3516,97.0234,6.37939
105.424,114.59,7.63916
120.557,131.281,8.92468
134.789,146.77,9.97754
147.881,161.068,10.9519
159.84,174.25,11.9418
170.869,186.395,12.9354
181.098,197.6,13.7133
190.713,207.887,14.1661
199.834,217.537,14.5535
208.279,226.549,15.0612
215.816,234.816,15.6714
222.691,242.305,16.1841
228.988,249.1,16.6367
234.547,255.053,16.9502
239.484,260.227,17.1561
244.059,265.08,17.4941
248.219,269.668,17.8433
251.628,273.65,18.2542
254.396,276.978,18.7281
256.748,279.701,19.069
258.646,281.898,19.397
260.095,283.658,19.6219
261.228,284.927,19.6373
262.109,285.833,19.6849
262.688,286.269,19.5514
262.902,286.18,19.384
262.682,285.741,19.2573
262.023,284.936,18.9243
261.056,283.874,18.8022
259.786,282.551,18.8356
258.146,280.762,18.7982
256.396,278.817,18.5983
254.58,276.797,18.3223
252.547,274.491,18.0739
250.19,271.98,17.8627
247.338,269.131,17.8773
244.346,266.062,17.9024
241.788,263.294,17.754
239.277,260.418,17.4301
236.615,257.218,16.9164
233.991,254.137,16.5045
231.173,251.021,16.2749
227.972,247.566,16.1392
224.618,243.896,15.8971
221.387,240.232,15.483
218.142,236.401,14.8993
214.72,232.285,14.2486
211.153,228.194,13.7762
207.708,224.307,13.3773
204.271,220.18,12.8382
200.547,215.73,12.1552
196.748,211.374,11.6173
193.147,207.479,11.4194
189.568,203.88,11.3634
185.973,200.109,11.245
182.544,196.319,10.9818
179.213,192.627,10.7035
176.095,189.224,10.4798
172.893,185.792,10.1517
169.39,181.879,9.84824
165.909,177.866,9.53775
162.364,174.089,9.25436
158.927,170.523,9.08849
155.739,167.122,8.97218
152.474,163.637,8.80528
149.065,159.973,8.58406
145.703,156.375,8.41348
142.382,152.916,8.35609
139.09,149.399,8.20634
135.788,145.752,7.85733
132.512,142.208,7.56743
129.364,138.756,7.38628
126.179,135.411,7.24644
123.082,132.237,7.16644
120.137,129.174,7.14558
117.252,126.102,7.00935
114.521,123.069,6.89963
111.802,120.105,6.8414
108.925,117.189,6.66203
106.164,114.343,6.53997
103.466,111.49,6.53732
100.661,108.622,6.49673
98.1472,105.948,6.35381
95.8904,103.357,6.04948
93.1931,100.618,6.0025
90.2424,98.0745,6.42146
87.782,95.8293,6.67874
85.7234,93.5789,6.47224
83.6077,91.1638,6.21645
81.3452,88.5962,6.01748
79.1312,85.9922,5.70113
76.9657,83.4302,5.37627
74.848,80.933,5.00903
72.8123,78.5438,4.65658
71.0952,76.4585,4.24613
69.7552,74.632,3.79135
67.9501,72.5262,3.56377
65.4835,69.894,3.37211
63.0757,67.0582,3.03229
60.6437,64.293,2.80661
58.0272,61.5229,2.67739
55.5278,58.774,2.40544
53.2373,56.2031,2.10802
51.1799,53.7656,1.7856
49.1732,51.3529,1.46925
47.134,49.0774,1.21599
45.2448,47.0809,1.0849
43.478,45.1644,0.954834
41.6164,43.0815,0.688212
39.9072,41.0367,0.513186
38.5555,39.2517,0.208958
37.3019,37.6687,-0.17191
36.0531,36.078,-0.495099
34.8102,34.6591,-0.670515
33.5879,33.4773,-0.638638
32.2907,32.143,-0.696921
31.0339,30.7187,-0.8441
29.8987,29.2998,-1.08165
28.8108,28.0281,-1.35524
27.8234,26.9777,-1.41628
27.1094,26.0994,-1.47485
26.53,25.3839,-1.5477
25.7358,24.5269,-1.59775
24.7339,23.1832,-1.90858
23.565,21.6788,-2.17921
22.3293,20.3873,-2.29494
21.2239,19.2455,-2.34691
20.1944,18.1424,-2.3639
19.5249,17.476,-2.44808
19.2357,17.3392,-2.34923
18.5518,16.8731,-2.03251
17.4562,15.9499,-1.79771
16.5088,15.2483,-1.57347
16.078,14.97,-1.36082
15.8598,14.8465,-1.26775
15.2464,14.4695,-1.05781
14.221,13.4852,-0.985725
13.2063,12.2487,-1.13929
12.4219,11.1975,-1.56188
11.6015,10.0928,-1.97972
10.5637,8.66571,-2.12983
9.65781,7.23245,-2.50771
9.06866,6.01688,-3.16748
8.34689,4.77826,-3.72725
7.56274,3.60805,-4.06303
6.93314,2.60706,-4.28098
6.06631,1.72922,-4.41985
5.18948,1.01996,-4.40493
4.53014,0.418427,-4.37197
3.89117,-0.0885925,-4.28452
3.546,-0.26239,-4.0514
3.47054,-0.299896,-3.89845
3.34772,-0.512115,-3.82387
3.19421,-0.696411,-3.94405
3.30627,-0.432983,-3.84118
3.53105,0.184784,-3.37436
3.40301,0.314636,-3.14566
3.1624,0.185165,-3.05077
3.27469,0.506561,-2.93301
3.63663,1.05203,-2.75357
3.61692,1.14273,-2.45932
3.1426,0.908844,-2.21181
2.64502,0.680496,-1.97236
2.22886,0.42807,-1.82977
1.81445,0.1828,-1.76033
1.34056,-0.195755,-1.64851
0.818161,-0.669708,-1.55402
0.291775,-1.33638,-1.576
-0.34729,-2.12424,-1.6797
-1.11895,-2.96609,-2.12291
-2.17178,-4.11638,-2.19519
-3.48094,-5.51842,-2.08543
-4.70798,-6.99309,-2.30106
-5.84962,-8.4162,-2.50395
-6.73855,-9.72995,-2.99921
-7.23826,-10.9985,-3.823
-7.73411,-12.4669,-4.85748
-8.40369,-13.9001,-5.63141
-8.89375,-14.7737,-5.95227
-9.26221,-15.5265,-6.24023
-9.51595,-15.9582,-6.46217
-9.61368,-16.0576,-6.47296
-9.83139,-16.2658,-6.39368
-10.0454,-16.0366,-5.9016
-10.0641,-15.4111,-5.28751
-9.79642,-14.7906,-4.9543
-8.97237,-14.1235,-5.11783
-7.53024,-12.66,-5.04048
-5.5564,-10.1684,-4.7562
-2.87267,-6.58734,-2.76477
0.68074,-1.69034,-0.836121
4.80846,4.14301,-0.570633
9.49879,11.2418,1.48038
14.6649,19.3302,4.53506
19.8757,28.377,8.32007
24.9924,38.1078,13.0448
29.7616,47.0149,17.0819
34.3287,55.1302,20.8003
39.8158,65.2252,25.1394
45.1559,75.5891,30.8274
49.2293,83.5636,36.1187
52.805,91.3067,38.9686
56.107,99.1412,42.6121
59.3052,106.314,46.9017
62.2311,112.774,50.3074
63.9806,116.947,52.6501
63.9716,118.262,53.9322
62.1587,117.434,55.0511
59.0139,114.224,54.9278
55.7567,110.033,54.2916
52.11,105.361,53.9178
47.8273,99.9448,52.338
43.7729,94.8634,50.7536
40.1018,90.3608,49.9927
36.5012,85.6024,48.8057
32.9984,80.498,47.1831
29.7558,75.5322,45.4894
26.2413,70.5177,44.0937
21.9485,64.894,42.728
17.2708,58.2236,40.8248
12.4213,50.2299,36.5314
8.05878,42.6038,33.2728
4.58398,35.1919,30.5752
0.8526,25.7437,24.8555
-3.32086,15.8245,19.1663
-7.54266,6.61963,14.2437
-11.8804,-2.93762,8.94904
-16.3633,-13.4952,2.9505
-20.8066,-24.6123,-3.76697
-24.4614,-34.9194,-10.3047
-28.0411,-44.8008,-17.6782
-32.2375,-54.8766,-24.1271
-36.2015,-64.0299,-27.9153
-39.2854,-71.197,-31.6987
-41.6135,-76.976,-35.2743
-43.6525,-82.4698,-38.6101
-45.4993,-87.8445,-42.1631
-47.2592,-93.4041,-46.0205
-48.5931,-97.6165,-49.0264
-48.7654,-98.6063,-49.7933
-47.7424,-96.8975,-49.0892
-46.3084,-93.968,-47.6895
-44.7564,-90.4926,-45.7307
-42.5957,-86.2048,-43.518
-39.9883,-81.4314,-41.3375
-37.4701,-76.9827,-39.3663
-35.3399,-73.1472,-37.6054
-33.7892,-69.9667,-36.0511
-32.4086,-67.2581,-34.6749
-31.0733,-64.6121,-33.3119
-30.0217,-62.2715,-32.1076
-28.9916,-60.1398,-31.0802
-27.8735,-57.8597,-29.9229
-26.7834,-55.4795,-28.6349
-25.5224,-53.0301,-27.3896
-24.2869,-50.5701,-26.1455
-23.2205,-48.1989,-24.9222
-22.0748,-45.8994,-23.7391
-21.0749,-43.692,-22.5397
-20.1858,-41.6328,-21.3819
-19.1693,-39.5676,-20.291
-18.0957,-37.4178,-19.2989
-17.1064,-35.2722,-18.2119
-16.3141,-33.5172,-17.1453
-15.7421,-32.1093,-16.2228
-15.1245,-30.5048,-15.3618
-14.3417,-28.9835,-14.7292
-13.6097,-27.7487,-14.0648
-12.9607,-26.3637,-13.168
-12.5409,-24.9721,-12.2541
-12.2686,-23.8714,-11.5141
-12.0463,-23.0382,-11.0513
-11.8922,-22.3466,-10.5645
-11.7198,-21.6189,-9.77623
-11.5443,-20.8287,-9.23656
-11.373,-20.1724,-8.8506
-10.9729,-19.4215,-8.38719
-10.3242,-18.3681,-8.03638
-9.93515,-17.6004,-7.62634
-9.56473,-16.7919,-7.13196
-8.73318,-15.5173,-6.73959
-7.7565,-14.3526,-6.68549
-6.79504,-13.3521,-6.71042
-5.81476,-12.2778,-6.38132
-5.02313,-11.2829,-6.15771
-4.31403,-10.4307,-6.15594
-3.37543,-9.54327,-6.08191
-2.34515,-8.56494,-6.12079
-1.43533,-7.6131,-6.18506
-0.646576,-6.79791,-6.16196
-0.0204468,-6.09009,-5.91208
0.670898,-5.07037,-5.60226
1.48459,-3.85449,-5.48944
2.21378,-2.95062,-5.2074
2.68488,-2.34094,-4.9682
3.24106,-1.59503,-4.84747
4.10941,-0.470642,-4.54907
4.82541,0.505981,-4.24097
5.1441,1.07654,-3.97974
4.94516,1.19049,-3.73795
4.62939,1.17804,-3.49371
4.48447,1.28326,-3.25592
4.3157,1.26257,-3.10092
4.07687,1.30817,-2.8237
3.827,1.36432,-2.50974
3.53976,1.31201,-2.21021
3.03979,1.43878,-1.61176
2.70306,1.70398,-0.995758
2.60919,1.82593,-0.680969
2.80533,2.25623,-0.542694
3.22598,2.95392,-0.254883
3.28943,3.35516,0.166199
2.97583,3.47003,0.556366
2.56116,3.37476,0.953247
2.07248,3.17035,1.20862
1.48749,2.84155,1.40564
0.928772,2.52917,1.64209
0.19693,2.26215,2.12958
-0.587219,2.08966,2.71899
-0.858582,2.35352,3.18677
-0.674744,2.98322,3.66467
-0.624268,3.49066,4.10849
-0.945587,3.43927,4.34729
-1.43143,3.01764,4.3931
-1.95514,2.60284,4.52707
-2.63715,2.08423,4.70633
-3.13162,1.7345,4.81387
-3.37399,1.6106,4.95395
-3.71432,1.3075,4.93536
-4.13281,0.806763,4.79132
-4.57639,0.22406,4.73657
-4.83084,-0.183716,4.58658
-4.88666,-0.441345,4.35825
-5.00201,-0.734802,4.10516
-5.29645,-1.21674,3.9834
-5.38242,-1.56506,3.86993
-5.04645,-1.47717,3.60587
-4.64261,-1.21545,3.46466
-4.3465,-1.01239,3.39191
-3.88519,-0.753601,3.21393
-3.22116,-0.354248,2.95941
-2.56567,0.110168,2.73203
-1.74106,0.63562,2.38577
-0.922607,1.13635,1.8725
-0.110779,1.81274,1.77844
0.700653,2.47626,1.73105
1.34641,2.86096,1.49121
1.91107,3.17511,1.28625
2.39883,3.45203,1.04755
2.97794,3.75287,0.759338
3.47122,4.0611,0.490173
3.99277,4.31665,0.294952
4.58124,4.63336,0.154144
5.06772,5.02185,-0.216187
5.70422,5.56616,-0.370941
6.3988,6.16772,-0.185059
7.02411,6.69678,-0.252014
7.66571,7.31958,-0.330017
8.24661,7.78619,-0.41687
8.7424,7.96466,-0.673248
9.27377,8.1308,-1.03452
9.81073,8.38123,-1.34668
10.1745,8.41492,-1.65259
10.4091,8.3114,-2.2081
10.7136,8.37445,-2.62363
10.9603,8.27637,-2.7305
11.255,7.87915,-3.28677
11.5878,7.65198,-3.84363
11.6137,7.59937,-3.9819
11.3921,7.27521,-4.14911
11.1911,6.98438,-4.28342
11.1741,6.96881,-4.25604
11.2413,7.00537,-4.19214
11.3532,7.11298,-4.22318
11.4043,7.03613,-4.4422
11.3366,6.92627,-4.42618
11.2943,6.95544,-4.28644
11.3238,7.02655,-4.22522
11.4001,7.29236,-4.02936
11.6778,7.77777,-3.78632
12.254,8.72046,-3.52841
12.6725,9.64856,-3.15399
12.5655,9.91174,-2.72455
12.2111,10.0076,-2.29678
11.9323,10.2931,-1.8822
11.6085,10.2986,-1.41647
11.2565,10.0999,-1.04922
10.8648,9.82761,-0.890411
10.4771,9.52335,-0.877716
10.2513,9.33722,-0.96344
10.0613,9.04807,-1.01239
9.74117,8.65491,-1.04471
9.25108,8.14236,-1.08646
8.8617,7.60681,-1.17035
8.69075,7.21265,-1.32715
8.31479,6.87073,-1.38824
7.62322,6.54877,-1.05896
7.19694,6.40848,-0.72168
7.08897,6.68292,-0.331421
7.10933,7.22891,0.184784
7.12716,7.69708,0.567078
6.93733,7.94379,1.00375
6.84671,8.32935,1.48697
7.31482,9.35471,2.01614
8.01356,10.6111,2.53915
8.15506,11.1968,3.0184
7.84077,10.9884,3.22504
7.39931,10.7133,3.25433
7.05111,10.6125,3.52707
6.71559,10.3503,3.73639
6.0434,9.81119,3.85388
5.38381,9.38913,4.05869
4.99694,9.10706,4.10895
4.76437,8.86093,4.0639
4.52658,8.73756,4.24081
4.13353,8.44167,4.47879
3.71806,8.24245,4.60291
3.30948,8.23769,4.86176
3.01045,8.38641,5.29288
2.86957,8.89362,6.00229
2.76109,9.55972,6.87805
2.80656,10.36,7.57687
3.0993,11.1745,8.05432
3.24791,11.6248,8.35919
3.18542,11.7836,8.564
3.11617,11.8161,8.80103
3.04068,11.8922,8.89844
3.28783,12.1939,8.86862
3.74913,12.4711,8.71645
3.86388,12.4073,8.50221
3.41301,11.9931,8.55385
2.60875,11.3978,8.76364
2.01369,11.0098,9.06352
1.59561,10.7209,9.32961
1.09117,10.4518,9.42592
0.813934,10.4159,9.73096
0.737091,10.4958,9.92883
0.650406,10.6033,9.89218
0.609222,10.6775,10.0313
0.576462,10.7647,10.1493
0.599838,10.9672,10.3015
0.655411,11.0639,10.405
0.727402,11.1643,10.4668
0.944916,11.4307,10.5366
1.12773,11.7272,10.6583
1.20253,12.1404,11.0567
1.2921,12.4116,11.2185
1.35426,12.3791,11.0005
1.42493,12.2679,10.8885
1.55811,12.2009,10.6262
1.47627,11.9468,10.2575
1.38396,11.7976,10.2467
1.52824,12.0945,10.5433
1.54581,12.2711,10.6766
1.47162,12.0833,10.4756
1.44806,11.8708,10.4441
1.35582,11.7535,10.5695
1.11691,11.5335,10.4222
0.767868,11.1362,10.2426
0.384003,10.7055,10.0898
0.111526,10.2662,9.94852
-0.0762939,9.80426,9.83904
-0.204971,9.4252,9.64835
-0.33255,9.07275,9.4441
-0.452103,8.71634,9.19673
-0.57782,8.38583,9.03009
-0.818481,8.10239,9.09389
-0.954865,7.78989,8.94047
-0.979431,7.46472,8.47313
-1.02881,7.20212,8.11575
-1.18352,6.88046,8.03738
-1.49187,6.34854,7.85716
-1.90335,5.58975,7.47151
-2.30858,4.95859,7.25192
-2.53644,4.58109,7.11638
-2.68626,4.09512,6.8167
-2.92676,3.46368,6.4409
-3.1974,2.79953,6.04262
-3.52351,2.23822,5.74879
-3.92879,1.74472,5.61748
-4.32599,1.10883,5.34016
-4.6124,0.509613,5.03854
-4.88333,-0.113586,4.73941
-5.20099,-0.699524,4.52225
-5.30884,-0.968964,4.28229
-5.17836,-1.00693,3.95439
-4.95398,-1.13754,3.79311
-4.58678,-1.17773,3.48276
-4.25676,-1.02945,3.14383
-3.94153,-0.807587,3.14413
-3.64748,-0.332001,3.32574
-3.40096,0.056488,3.46487
-3.17212,0.266479,3.49301
-3.10386,0.293854,3.39868
-3.16618,-0.168488,3.00574
-3.36489,-0.706604,2.63
-3.18517,-0.820007,2.2626
-2.38293,-0.78537,1.51544
-1.88591,-1.06964,0.755524
-1.868,-1.74948,0.0456238
-1.94488,-2.60852,-0.749878
-2.17233,-3.36896,-1.25647
-2.67117,-4.15405,-1.47699
-3.14405,-4.93927,-1.79251
-3.47558,-5.58334,-2.10806
-3.67387,-6.08646,-2.48718
-3.45916,-6.13895,-2.76294
-3.16437,-5.97443,-2.73544
-3.05465,-5.79813,-2.65778
-2.90005,-5.56653,-2.65121
-2.44341,-5.30548,-2.83112
-1.73062,-4.88394,-3.01096
-1.0926,-4.26031,-3.03902
-0.819889,-3.79474,-3.00212
-0.685722,-3.61856,-2.94312
-0.449314,-3.22711,-2.7383
-0.226429,-2.74432,-2.49666
-0.16024,-2.69382,-2.57666
-0.419476,-3.04947,-2.66286
-0.963997,-3.47653,-2.4391
-1.63237,-3.85193,-2.15222
-2.26574,-4.28915,-2.01767
-2.74241,-4.93924,-2.217
-2.85903,-5.4635,-2.69666
-2.60278,-5.72134,-3.22946
-2.35873,-5.92032,-3.60165
-2.05125,-5.84201,-3.73473
-1.69133,-5.62875,-3.83896
-1.5221,-5.50298,-3.99515
-1.41595,-5.50414,-4.13882
-1.28714,-5.49142,-4.25111
-1.17818,-5.34764,-4.22534
-1.14288,-5.18407,-4.07109
-1.14256,-5.06873,-3.92281
-1.15468,-5.00626,-3.79138
-1.02787,-4.78658,-3.72467
-0.743198,-4.36763,-3.69798
-0.180321,-3.5106,-3.35025
0.308138,-2.63422,-2.89984
0.308456,-2.31696,-2.59813
0.171532,-2.15627,-2.32394
0.00157356,-2.08394,-2.08292
-0.151423,-2.09491,-1.86227
-0.267736,-2.05847,-1.76387
-0.123575,-1.87398,-1.79308
0.244732,-1.37328,-1.61411
0.549826,-0.79744,-1.36052
0.582855,-0.750137,-1.41254
0.264156,-1.11853,-1.41948
-0.261608,-1.55249,-1.28394
-1.13902,-2.35768,-1.2468
-2.03811,-3.20819,-1.22852
-2.62796,-3.62737,-1.08618
-2.91265,-3.82532,-1.05678
-2.97179,-4.00713,-1.13635
-3.3525,-4.44698,-1.19319
-3.83669,-5.09921,-1.37044
-4.048,-5.5294,-1.51608
-4.06416,-5.61729,-1.57063
-3.86943,-5.4866,-1.60762
-3.54499,-5.12099,-1.53212
-3.09216,-4.71227,-1.55949
-2.75175,-4.44085,-1.63907
-2.50379,-4.14353,-1.63417
-2.14458,-3.90352,-1.69582
-1.87278,-3.68071,-1.73933
-1.62879,-3.17879,-1.59055
-0.904755,-2.42982,-1.50304
0.00989532,-1.63419,-1.54419
0.589333,-0.87677,-1.39896
0.969264,-0.289032,-1.18015
1.25021,0.0644989,-1.07455
1.4924,0.27861,-1.16035
1.55412,0.302261,-1.29256
1.65833,0.361084,-1.34029
2.1651,0.689438,-1.49767
2.69392,0.849632,-1.84417
2.98963,0.770241,-2.17068
3.34632,0.812927,-2.44465
3.86277,0.948097,-2.826
4.28924,1.11116,-3.15077
4.39102,1.30009,-3.11608
4.2765,1.43939,-2.92275
4.15016,1.4579,-2.73206
4.08139,1.3997,-2.61358
3.88882,1.29901,-2.46858
3.43639,1.2398,-2.13335
2.91121,1.22713,-1.7434
2.53721,1.26548,-1.27599
2.50428,1.58827,-0.80719
2.67586,2.01559,-0.611549
2.62881,2.21558,-0.433815
2.26668,2.31242,0.00494385
1.87566,2.39348,0.484268
1.43742,2.24535,0.759239
1.03742,1.9557,0.914055
0.748913,1.71068,1.07944
0.292019,1.41922,1.11552
-0.151562,1.1508,1.24689
-0.274258,1.09666,1.62487
-0.355095,1.21443,1.77404
-0.437565,1.41983,1.80798
-0.569283,1.47839,1.93517
-0.802094,1.24358,1.98026
-1.07485,1.10991,2.25955
-1.56967,1.07167,2.71427
-2.12212,0.798126,2.92463
-2.42014,0.554749,2.94527
-2.47857,0.53215,2.90988
-2.61975,0.428925,2.88439
-2.71525,0.168869,2.77509
-2.62402,0.00541687,2.57596
-2.501,-0.111328,2.42469
-2.5056,-0.36142,2.19069
-2.65083,-0.68486,1.87637
-2.71596,-1.1212,1.50774
-2.82194,-1.55978,1.24561
-2.72674,-1.57877,1.16176
-2.29187,-1.20322,1.14554
-2.01046,-0.907913,1.21242
-1.85987,-0.835938,1.17241
-1.73665,-0.885498,0.930435
-1.73512,-1.01248,0.718491
-1.77278,-0.83519,0.866013
-1.81298,-0.615784,1.13864
-1.92404,-0.822418,1.0975
-2.08788,-1.01587,1.0437
-2.00003,-0.841949,1.08644
-1.83988,-0.537018,1.24915
-1.94711,-0.463943,1.45493
-2.18266,-0.424286,1.74409
-2.60012,-0.563828,2.04324
-3.00342,-0.989975,2.00656
-3.08498,-1.2639,1.80984
-3.05543,-1.40192,1.58664
-3.10627,-1.70731,1.28595
-3.19847,-2.14035,1.02814
-3.28838,-2.486,0.78595
-3.02691,-2.49791,0.483612
-2.51751,-2.23286,0.21405
-2.41205,-2.23968,0.127182
-2.55655,-2.39128,0.183029
-2.73734,-2.63453,0.165787
-2.97947,-3.03761,-0.0216217
-3.00535,-3.19148,-0.250687
-2.84143,-3.14039,-0.290588
-2.64299,-3.00015,-0.256882
-2.35072,-2.76875,-0.334732
-2.03215,-2.62927,-0.585541
-1.6344,-2.40646,-0.810959
-0.964264,-1.96508,-0.980316
-0.374077,-1.44441,-1.08699
-0.037632,-1.04179,-1.11375
0.169231,-0.891014,-1.15988
0.349861,-0.807404,-1.16716
0.704182,-0.683472,-1.35762
1.2008,-0.595787,-1.7048
1.67327,-0.217094,-1.80269
2.01982,0.294518,-1.69659
2.07644,0.317139,-1.64078
1.88099,0.153297,-1.6935
1.83869,0.161629,-1.75504
1.83109,0.0140305,-1.82899
1.79446,-0.324173,-2.1064
1.99746,-0.597519,-2.56369
2.38456,-0.55835,-2.95738
2.84171,-0.343582,-3.2366
3.58305,0.0878906,-3.46349
4.3308,0.700394,-3.63674
4.63212,1.01697,-3.64392
4.93752,1.35036,-3.69102
5.23273,1.47028,-3.91741
5.34013,1.55178,-3.82822
5.73613,2.13641,-3.58286
6.16355,2.57293,-3.54688
6.0177,2.41898,-3.53124
5.62738,2.00542,-3.56396
5.40445,1.62902,-3.73804
5.16127,1.33225,-3.80569
4.76244,1.02961,-3.71754
4.43662,0.847282,-3.60538
4.28264,0.837418,-3.46798
4.29726,1.02667,-3.25416
4.44981,1.41026,-3.03686
4.51283,1.63646,-2.89719
4.3685,1.55913,-2.83068
4.19359,1.36635,-2.78158
4.1885,1.53079,-2.65297
4.3363,1.89794,-2.53874
4.62096,2.23366,-2.42981
5.03389,2.54687,-2.48172
5.36166,2.79401,-2.6139
5.30794,2.89024,-2.43765
4.93649,2.79272,-2.16066
4.7321,2.78647,-2.05207
4.7056,2.78476,-2.01575
4.55212,2.54358,-2.07941
4.22459,2.04793,-2.17722
3.95981,1.62381,-2.29312
3.7336,1.42262,-2.34248
3.42085,1.17271,-2.30556
3.25967,0.965897,-2.31549
3.13858,0.836838,-2.32635
2.85004,0.463287,-2.42428
2.49327,-0.0289154,-2.47884
2.16872,-0.366119,-2.43414
1.9911,-0.483246,-2.42687
1.91075,-0.61496,-2.45063
1.81245,-0.915512,-2.64399
1.60155,-1.16011,-2.68652
1.11404,-1.41833,-2.44672
0.667984,-1.77036,-2.47429
0.405182,-2.08463,-2.63504
0.267197,-2.23732,-2.56628
0.191772,-2.43752,-2.63912
-0.0778046,-2.98502,-2.89927
-0.563858,-3.63682,-3.00987
-0.931335,-3.89096,-2.9255
-0.940552,-3.80032,-2.87202
-0.886551,-3.86592,-3.00338
-0.937317,-4.10793,-3.11235
-1.20982,-4.4269,-3.14868
-1.67683,-4.87684,-3.16395
-2.16888,-5.27965,-3.01756
-2.71806,-5.65241,-2.85143
-3.28615,-6.17379,-2.86716
-3.80971,-6.62739,-2.84946
-4.04436,-6.83953,-2.76978
-3.89774,-6.75034,-2.7612
-3.38584,-6.14899,-2.66933
-3.0512,-5.56171,-2.4158
-3.06158,-5.33553,-2.35123
-3.01304,-5.36057,-2.50336
-3.17616,-5.60709,-2.46835
-3.64749,-6.03937,-2.38531
-4.25074,-6.72708,-2.49084
-4.79957,-7.38829,-2.62478
-5.3717,-8.04595,-2.70461
-6.04042,-8.86947,-2.80856
-6.51181,-9.45638,-2.90032
-7.03667,-9.96786,-3.00972
-7.5974,-10.5779,-3.08134
-7.95848,-11.0137,-3.1521
-8.36426,-11.3667,-3.18445
-8.66098,-11.6561,-3.06941
-8.69055,-11.7671,-3.0189
-8.70165,-11.8358,-3.1348
-8.64051,-11.8426,-3.23881
-8.40888,-11.5989,-3.14799
-8.53049,-11.1866,-2.63071
-8.68296,-10.8306,-2.11902
-8.37845,-10.5423,-2.09846
-7.85663,-10.1485,-2.4216
-7.29539,-9.91426,-2.85339
-6.87568,-9.98566,-3.10599
-6.69218,-10.2113,-3.44009
-6.55299,-10.3009,-3.69608
-6.20929,-10.2182,-3.91869
-5.79008,-10.2914,-4.41412
-5.49187,-10.4297,-4.80544
-5.43098,-10.4518,-4.88841
-5.53859,-10.4458,-4.78983
-5.64719,-10.4948,-4.79454
-5.64016,-10.4477,-4.92421
-5.48338,-10.2509,-4.77632
-5.3503,-10.0542,-4.63176
-5.2258,-9.78369,-4.55173
-4.9522,-9.39261,-4.38091
-4.69611,-8.97729,-4.25696
-4.49102,-8.56897,-4.13416
-4.21089,-8.19736,-4.01393
-3.82628,-7.67606,-3.81009
-3.29605,-6.95541,-3.61821
-2.82788,-6.43234,-3.60609
-2.74709,-6.16949,-3.4724
-2.7775,-5.91531,-3.06458
-2.67972,-5.61047,-2.80273
-2.62575,-5.29526,-2.62421
-2.54462,-4.99271,-2.35321
-2.55443,-4.75421,-2.10822
-2.5676,-4.569,-1.93382
-2.59065,-4.40424,-1.78708
-2.56841,-4.0152,-1.47185
-2.27075,-3.40097,-1.04164
-2.11153,-2.87866,-0.673477
-2.18517,-2.57635,-0.364029
-2.31355,-2.49597,-0.164398
-2.31528,-2.34366,-0.00848389
-2.23889,-2.07214,0.121475
-2.15765,-1.8587,0.264404
-2.00352,-1.66333,0.38179
-1.90427,-1.49982,0.372177
-1.72656,-1.241,0.494812
-1.52332,-0.826294,0.823669
-1.35095,-0.353943,1.04857
-1.20102,0.00933838,1.22963
-0.990204,0.402527,1.46803
-0.503403,1.17081,1.69189
-0.0382538,1.96585,1.98671
0.0432739,2.26785,2.21298
0.263733,2.70438,2.40099
0.853867,3.57733,2.71823
1.17526,4.15033,2.98706
1.10654,4.30011,3.24199
1.08157,4.62811,3.6671
1.35123,5.4411,4.10158
1.43903,5.84476,4.35945
1.17772,5.81863,4.6192
0.978546,6.04596,5.01112
0.742249,5.89081,5.08054
0.375534,5.49435,5.03015
0.00971985,5.24084,5.20367
-0.074295,4.95956,5.15651
-0.0162811,4.62292,4.7308
-0.0437775,4.2789,4.37375
0.0877838,4.27557,4.23878
0.39621,4.47443,4.03752
0.808914,4.54556,3.71571
1.13449,4.51859,3.3741
1.49411,4.82788,3.27705
1.81685,5.3053,3.47543
2.05673,5.7778,3.69139
2.31418,6.10464,3.83184
2.30724,6.20551,3.96647
2.29114,6.36713,4.17336
2.6087,6.79254,4.26302
3.0824,7.42874,4.28267
3.42839,7.95193,4.49788
3.65404,8.31665,4.72151
3.71152,8.47266,4.81516
3.54916,8.46193,4.83236
3.37878,8.36095,4.89447
3.242,8.27116,4.98341
2.95227,8.19936,5.26993
2.66277,8.27774,5.71966
2.76387,8.53407,5.80368
2.77361,8.58063,5.71338
2.49222,8.45204,5.79991
2.26581,8.44707,6.0443
2.11202,8.46974,6.2366
2.06761,8.31137,6.22953
2.3588,8.41159,6.11703
2.93787,8.83612,5.90692
3.42428,9.09952,5.65252
3.54248,9.08564,5.5167
3.20469,8.75188,5.5092
2.98602,8.5758,5.46248
3.29709,8.7624,5.32191
3.6817,8.68409,4.91807
3.75171,8.24586,4.48402
3.86118,8.06077,4.20562
4.17184,8.15091,3.94179
4.40438,8.13029,3.67529
4.46065,7.88726,3.38295
4.44693,7.44294,3.02213
4.46317,7.157,2.68495
4.32951,6.9611,2.52612
4.2537,6.70986,2.39611
4.2665,6.61379,2.33926
4.25991,6.57491,2.31094
4.46797,6.60471,2.20797
4.63791,6.67693,2.11835
4.75817,6.74462,2.00523
4.87263,6.82267,1.90908
5.00893,6.88095,1.84568
5.13136,6.93523,1.85904
5.26806,7.08912,1.86113
5.41108,7.21842,1.82344
5.4846,7.33913,1.84013
5.67071,7.56245,1.83704
5.85972,7.78601,1.90017
5.96236,7.89125,1.93788
5.94251,7.826,1.93916
5.95814,7.80737,1.92284
5.98658,7.78095,1.82744
5.89696,7.73985,1.86911
5.90862,7.78846,1.9006
6.06337,7.89171,1.83907
5.97603,7.78027,1.74432
5.66811,7.36366,1.62403
5.3242,6.95604,1.60085
4.85098,6.49091,1.63005
4.35255,5.95758,1.63618
3.87206,5.41962,1.51354
3.49105,4.89273,1.33114
3.33407,4.56906,1.25542
3.27166,4.41457,1.26204
3.30509,4.412,1.23068
3.57219,4.58923,1.08437
3.67553,4.55115,0.917717
3.68645,4.56934,0.861473
4.03465,4.95071,0.859055
4.61749,5.51051,0.855797
5.16725,5.94928,0.750259
5.25392,5.70496,0.509712
4.95302,5.40216,0.508186
4.7192,5.42894,0.692497
4.54868,5.18193,0.598053
4.00661,4.4339,0.413986
3.08856,3.78452,0.706268
2.05066,3.39864,1.30151
1.3188,2.69196,1.25208
0.813828,1.61061,0.771729
0.201065,0.665848,0.497139
-0.183594,0.0721741,0.280067
-0.353592,-0.545212,-0.209412
-0.376144,-1.11787,-0.954514
-0.383194,-1.47032,-1.198
-0.478287,-1.84441,-1.26706
-0.396164,-2.20142,-1.73517
0.0921631,-1.9361,-2.0691
0.564926,-1.49232,-2.08318
0.63237,-1.44278,-2.02729
0.496689,-1.54228,-2.05029
0.245361,-1.89267,-2.21279
0.248215,-2.02788,-2.32969
0.572311,-1.73894,-2.27982
0.479416,-1.66479,-2.14551
0.124649,-1.46751,-1.63715
0.0509338,-1.14005,-1.14751
-0.114304,-1.19275,-1.07372
-0.331024,-1.48476,-1.20055
-0.438705,-1.83156,-1.37407
-0.402542,-1.88959,-1.49117
-0.327072,-1.90511,-1.57175
-0.365219,-2.021,-1.63461
-0.113174,-1.92076,-1.80727
0.404556,-1.55829,-2.01621
0.699249,-1.36336,-2.11306
0.647125,-1.42239,-2.04321
0.419403,-1.50581,-1.96405
0.348465,-1.52341,-1.80115
0.637299,-1.13176,-1.62088
0.976562,-0.59964,-1.53574
1.12335,-0.342422,-1.44001
1.15067,-0.144577,-1.29412
1.18187,0.160004,-1.04282
1.10028,0.180099,-0.815048
0.782837,-0.0671844,-0.68058
0.483444,-0.1371,-0.545021
0.461472,0.0337219,-0.441952
0.638672,0.253464,-0.38763
0.701904,0.467148,-0.304119
0.835953,0.800644,-0.155724
0.83783,0.950729,0.00763702
0.619583,0.846878,0.170975
0.516296,0.896088,0.402248
0.363815,0.897018,0.510796
0.16539,0.638321,0.413445
-0.0419922,0.438553,0.438229
-0.243835,0.309402,0.512489
-0.296432,0.187576,0.463531
-0.119659,0.316635,0.435043
-0.0423126,0.430176,0.505096
-0.387054,0.270523,0.674675
-0.861252,0.0387878,0.830593
-0.984589,-0.00923157,0.941498
-0.723068,0.196793,1.00577
-0.572067,0.375626,1.02334
-0.552643,0.498901,1.01923
-0.212097,0.880219,1.01281
0.409561,1.56293,1.02369
0.747284,1.94463,1.0536
0.872314,2.00578,1.05828
1.09839,2.1866,1.06981
0.892273,2.02158,1.1003
0.204758,1.38388,1.13604
-0.572113,0.693954,1.28237
-1.24719,-0.0665283,1.25861
-1.80531,-0.90712,0.902489
-2.30067,-1.60779,0.672249
-2.66122,-2.07271,0.610725
-2.80554,-2.21204,0.59111
-2.69852,-2.08926,0.591454
-2.7317,-2.18578,0.53965
-3.16359,-2.62122,0.507004
-3.53865,-3.02023,0.493805
-3.88734,-3.40691,0.522545
-4.25186,-3.57449,0.662994
-4.02859,-3.23293,0.742851
-3.29386,-2.73077,0.609901
-2.74294,-2.39584,0.413277
-2.37913,-2.14459,0.240417
-2.10964,-1.97234,0.201347
-2.01122,-1.84511,0.224182
-2.01218,-1.88591,0.135551
-2.12025,-2.06987,0.0909958
-2.32211,-2.13705,0.172737
-2.48873,-2.2348,0.260529
-2.49876,-2.26498,0.259369
-2.51907,-2.2021,0.314987
-2.52164,-2.11089,0.394737
-2.39111,-1.92665,0.476219
-2.01246,-1.51486,0.620445
-1.35298,-0.837662,0.602394
-0.806602,-0.236847,0.566658
-0.606651,-0.00405884,0.620003
-0.486382,0.192673,0.677803
-0.372765,0.421738,0.807861
-0.470741,0.355835,0.89724
-0.493889,0.360107,0.930214
-0.50148,0.370926,0.903145
-0.603882,0.314316,0.87944
-0.603645,0.445374,1.11061
-0.719002,0.398224,1.24606
-1.09354,0.0431671,1.169
-1.65671,-0.54953,1.11743
-2.24594,-1.36485,0.900818
-2.83859,-2.24077,0.505577
-3.13936,-2.73674,0.30159
-3.22018,-2.81586,0.398659
-3.49774,-2.99034,0.495056
-3.72053,-3.3358,0.428001
-3.89158,-3.78979,0.176735
-4.08224,-4.31592,-0.159843
-3.97624,-4.46577,-0.494247
-3.46825,-4.06955,-0.741394
-3.02757,-3.78841,-0.875603
-2.80146,-3.84477,-1.10231
-2.44877,-3.69385,-1.27392
-1.99792,-3.34823,-1.33233
-1.777,-3.26323,-1.41632
-1.752,-3.25346,-1.42973
-1.67175,-3.06325,-1.36562
-1.63541,-3.10251,-1.383
-1.61306,-3.18768,-1.46175
-1.3917,-3.0202,-1.59669
-1.06562,-2.7337,-1.7134
-0.908386,-2.63852,-1.74612
-0.937452,-2.81197,-1.83745
-1.03895,-2.95702,-1.98798
-0.968904,-3.00877,-2.10084
-0.936186,-3.13528,-2.14337
-0.842751,-2.98476,-2.15729
-0.514376,-2.59589,-2.15956
-0.410358,-2.5154,-2.19955
-0.476334,-2.62162,-2.20545
-0.613129,-2.98448,-2.31832
-0.843695,-3.30005,-2.48577
-0.895309,-3.3493,-2.6098
-0.89487,-3.48779,-2.6567
-1.13979,-3.86523,-2.71446
-1.3483,-4.29703,-3.00344
-1.37858,-4.57991,-3.29399
-1.32335,-4.74472,-3.4383
-1.37934,-4.92372,-3.49219
-1.53317,-5.22686,-3.67098
-1.546,-5.39513,-3.93502
-1.51523,-5.53977,-4.00221
-1.55299,-5.65468,-4.0497
-1.50462,-5.45326,-4.0633
-1.33419,-5.2577,-3.93101
-1.10401,-5.0973,-3.93838
-0.988967,-4.99236,-3.94081
-0.9823,-4.93234,-3.94137
-0.735371,-4.61168,-3.91793
-0.536517,-4.25311,-3.71202
-0.602145,-4.25094,-3.5948
-0.83427,-4.53222,-3.65289
-1.12006,-4.82106,-3.67136
-1.12749,-4.6882,-3.58996
-0.927762,-4.29927,-3.4245
-0.807392,-4.23156,-3.36928
-0.884876,-4.35518,-3.42752
-0.977249,-4.48122,-3.47142
-0.980952,-4.59462,-3.63805
-1.08589,-4.79947,-3.79197
-1.32019,-5.10479,-3.84894
-1.498,-5.23088,-3.72986
-1.40339,-5.26957,-3.81246
-1.29913,-5.41817,-4.16388
-1.38445,-5.66994,-4.2949
-1.6273,-5.98891,-4.33115
-1.89482,-6.245,-4.41452
-1.87051,-6.30137,-4.51985
-1.46228,-5.9703,-4.54837
-0.987785,-5.5044,-4.50464
-0.855238,-5.36302,-4.51675
-0.97604,-5.43816,-4.45902
-1.09527,-5.39915,-4.26198
-1.15144,-5.13463,-3.98003
-1.27139,-4.93912,-3.67978
-1.51274,-5.02309,-3.44467
-1.65586,-4.94109,-3.25858
-1.85013,-4.88043,-3.04651
-2.27017,-5.2686,-2.88115
-2.55998,-5.45763,-2.79465
-2.63795,-5.34837,-2.66285
-2.83139,-5.29123,-2.42322
-2.83897,-4.90636,-2.05886
-2.50753,-4.23582,-1.80148
-2.15191,-3.62999,-1.61024
-1.95188,-3.14488,-1.21582
-2.01484,-2.77377,-0.714218
-1.99642,-2.37727,-0.355759
-2.1069,-2.45988,-0.364502
-2.64632,-3.25883,-0.647629
-3.49276,-4.59749,-1.03969
-4.53106,-6.20573,-1.62267
-5.57755,-7.68875,-2.14397
-6.60999,-9.2222,-2.70961
-7.82647,-11.3114,-3.78906
-8.99563,-13.8467,-4.99583
-9.74261,-16.0005,-6.18192
-10.1328,-17.3277,-7.05098
-9.94053,-17.4478,-7.35541
-9.4473,-17.1047,-7.57764
-9.0274,-16.7552,-7.69034
-8.50595,-16.2153,-7.68182
-8.26591,-15.8811,-7.59137
-8.00336,-15.061,-6.98871
-7.48047,-13.9032,-5.79938
-7.3018,-13.3601,-5.63243
-7.05704,-13.1223,-6.16289
-6.30553,-12.1006,-5.85092
-4.9278,-9.85501,-5.01555
-2.83955,-6.57205,-3.82658
-0.181503,-2.57614,-2.34956
2.83154,2.30743,-0.521347
6.57175,8.69995,2.09386
11.3064,16.3489,4.88718
16.5258,25.3626,10.349
21.8598,35.1913,15.2244
26.6247,44.1422,17.397
31.2529,52.5455,20.9621
37.3898,63.3947,25.7729
43.7473,74.4552,30.423
48.6969,82.9753,34.106
53.0424,91.3429,38.1448
56.8489,99.4836,42.5749
59.809,106.404,46.3861
62.5172,112.561,50.5634
64.4518,116.545,53.2199
64.548,117.934,53.4655
62.8127,117.214,54.1277
59.9044,114.378,54.3352
56.8823,110.893,53.7994
53.3663,106.648,53.0713
49.3625,101.846,52.2495
45.7465,97.5026,51.5311
42.506,93.484,50.759
39.3554,89.3248,49.8205
36.1905,84.9644,48.6544
32.9471,80.5304,47.4217
29.4763,76.0251,46.3834
25.6656,71.0073,45.2011
21.2385,64.752,43.3563
16.093,56.8008,40.5777
11.4141,49.1702,37.5389
7.56244,41.6727,33.7847
3.26111,31.9,28.5264
-1.37585,21.7281,22.79
-5.82355,12.5151,16.4825
-10.2867,2.92139,11.8842
-14.8757,-7.71423,7.30725
-19.4818,-18.9258,0.656128
-24.0304,-29.9713,-5.93555
-28.6771,-40.6265,-12.0519
-33.0822,-50.8511,-17.6741
-36.6871,-59.6908,-22.8531
-38.9401,-65.9471,-26.9018
-40.446,-70.9349,-30.3444
-42.1308,-76.1869,-34.3159
-43.9815,-81.8364,-38.1934
-45.8083,-87.4471,-41.5526
-46.8512,-90.7537,-43.8212
-46.697,-90.9291,-44.137
-45.4719,-88.7881,-43.1556
-43.611,-85.3878,-41.6566
-41.606,-81.5829,-39.8836
-39.7207,-77.6827,-37.8719
-37.9437,-74.1185,-36.1886
-36.1951,-70.8298,-34.7992
-34.8173,-68.0112,-33.3987
-33.9062,-65.9478,-32.0033
-32.9698,-64.1389,-31.0286
-31.8188,-62.3941,-30.5201
-30.7411,-60.8373,-29.9973
-29.891,-59.2817,-29.267
-28.9889,-57.4555,-28.3689
-27.9639,-55.4066,-27.4293
-26.8174,-53.3427,-26.4921
-25.6129,-51.1858,-25.4652
-24.4031,-48.8847,-24.455
-23.087,-46.4358,-23.3145
-21.693,-43.8658,-22.1
-20.4668,-41.5392,-21.0577
-19.5231,-39.57,-19.9994
-18.5859,-37.5696,-18.9104
-17.6081,-35.6161,-17.88
-16.7986,-33.8195,-16.8615
-16.0866,-32.2466,-16.0541
-15.4603,-30.9598,-15.4726
-14.9426,-29.7513,-14.8747
-14.2197,-28.4626,-14.2509
-13.6263,-27.2552,-13.5591
-13.2717,-26.2807,-12.893
-12.8409,-25.2532,-12.3841
-12.4212,-24.354,-11.9414
-12.1904,-23.7393,-11.5128
-12.0894,-23.0824,-10.9868
-11.9257,-22.4382,-10.4824
-11.8539,-22.0358,-10.156
-11.8073,-21.7285,-10.0391
-11.5856,-21.2594,-9.76054
-11.2817,-20.7348,-9.3192
-10.8463,-20.1514,-9.14659
-10.3765,-19.5648,-9.1713
-9.85443,-19.0648,-9.28972
-9.05792,-18.3143,-9.22359
-8.29858,-17.3217,-8.86441
-7.62979,-16.1985,-8.47757
-6.49252,-14.7838,-8.25571
-5.142,-13.4883,-8.44783
-3.88675,-12.3214,-8.61325
-2.88672,-11.3429,-8.49615
-2.3125,-10.8308,-8.47923
-1.5304,-9.84937,-8.28955
-0.403137,-8.39801,-7.99741
0.486237,-7.49646,-7.94995
1.31516,-6.79517,-8.07144
2.04523,-6.34235,-8.38226
2.2298,-6.5152,-8.68161
2.41449,-6.33044,-8.72656
2.70184,-5.67651,-8.56418
2.832,-5.13635,-8.03598
2.75955,-5.10291,-7.74423
2.51038,-5.26495,-7.65848
2.53323,-5.005,-7.44672
2.61346,-4.84351,-7.47266
2.65854,-4.63446,-7.30637
3.08112,-3.79724,-6.84964
3.59811,-2.90198,-6.45822
3.86121,-2.11603,-5.91727
3.8851,-1.31537,-5.15988
3.56784,-0.827087,-4.38062
2.93002,-0.699402,-3.59555
2.23798,-0.903564,-3.07431
1.65311,-0.968811,-2.59036
1.12164,-0.873962,-1.97937
0.572906,-0.806091,-1.38309
0.0493469,-0.637756,-0.676147
-0.559387,-0.656067,-0.0259399
-1.41864,-0.916565,0.443665
-2.37549,-1.20465,1.03351
-3.2247,-1.42249,1.81369
-4.01279,-1.6405,2.39923
-4.52332,-1.88806,2.68848
-4.75882,-2.04468,2.78494
-5.05692,-2.18225,2.88361
-5.42035,-2.5603,2.88132
-5.83804,-3.12714,2.75488
-6.34055,-3.59747,2.73019
-6.7236,-3.93951,2.73444
-6.74084,-3.93896,2.73947
-6.61923,-3.68274,2.86481
-6.75055,-3.62231,3.14624
-6.77054,-3.42841,3.43234
-6.71317,-3.10901,3.71829
-6.53513,-2.74615,3.93985
-6.27808,-2.43878,3.92538
-6.16608,-2.1543,3.99487
-6.00592,-1.83246,4.1669
-5.88269,-1.74213,4.12366
-5.41101,-1.44824,3.91281
-4.55066,-0.778625,3.64886
-3.61322,0.0365601,3.58286
-2.60449,0.877014,3.5737
-1.85822,1.48151,3.39417
-1.42798,1.81177,3.2034
-1.05615,2.05396,3.0412
-0.718933,2.23499,2.93939
-0.346252,2.36572,2.71793
-0.152771,2.43427,2.65259
0.0429688,2.5993,2.65344
0.678711,3.05444,2.19791
1.67957,3.76715,2.00067
2.72144,4.35168,1.75592
3.35577,4.43829,1.18301
3.74323,4.43341,0.709686
4.41815,4.64551,0.234619
5.23248,4.95776,-0.183197
6.13593,5.27527,-0.812225
7.26593,5.57513,-1.55438
8.17645,5.97638,-2.10312
8.83856,6.33948,-2.74744
9.55368,6.67365,-2.94971
10.1536,7.14282,-2.80283
10.6993,7.55359,-3.10785
11.2413,7.7688,-3.56772
11.834,7.95496,-3.94324
12.3229,7.98785,-4.31128
12.6044,7.94305,-4.69556
13.0805,8.20233,-4.98758
13.8075,8.62134,-5.14658
14.448,8.96863,-5.59613
14.7531,9.17401,-5.85953
14.8726,9.06848,-5.79877
14.968,8.8186,-6.04785
15.0406,8.71387,-6.20148
14.9547,8.69409,-6.13583
14.8227,8.80585,-6.06848
15.0717,9.13019,-5.99265
15.4255,9.47638,-5.88669
15.6311,9.76874,-5.71768
15.7038,9.79614,-5.92218
15.3642,9.38953,-6.26477
15.0683,9.17389,-5.96103
14.9509,9.26337,-5.6102
14.837,9.16711,-5.64233
14.6855,8.7854,-5.80377
14.2183,8.3277,-5.85855
13.838,7.99854,-5.84357
13.6768,7.7981,-5.8548
13.4957,7.77795,-5.69736
13.4469,7.87567,-5.55255
13.4405,7.9809,-5.57129
13.1316,7.76764,-5.34201
12.7988,7.5658,-5.06604
12.6217,7.71454,-4.78128
12.1875,7.69781,-4.40652
11.5942,7.59198,-4.0032
11.0779,7.55774,-3.54565
10.7439,7.48724,-3.24762
10.4449,7.39771,-3.02347
10.0766,7.29758,-2.78839
9.88295,7.28372,-2.7338
9.67587,7.27725,-2.53329
9.29213,7.10031,-2.19867
8.91375,6.86661,-2.08585
8.78729,6.9198,-1.83557
9.05535,7.41263,-1.49524
9.46811,8.51773,-0.846741
9.59907,9.68759,0.0504761
9.3143,10.0526,0.705048
9.07691,10.1033,1.05002
8.82961,10.0213,1.17993
8.19,9.556,1.33405
7.49709,9.0484,1.57202
6.85068,8.53857,1.78574
6.1528,7.97552,1.85529
5.56479,7.50345,1.93253
4.96445,6.89578,1.99448
4.09995,6.32391,2.21875
3.4261,6.24435,2.79559
2.97334,6.32495,3.33899
2.55783,6.26788,3.78085
2.13,5.99277,4.05151
1.64998,5.84549,4.29724
1.43614,6.23221,4.77374
1.44566,6.75879,5.24548
1.52139,7.2684,5.69144
1.61142,7.80566,6.18777
1.61209,8.09503,6.50839
1.54242,8.35063,6.83157
1.54359,9.02478,7.48782
1.65919,9.9735,8.30493
1.73186,10.6546,8.97064
1.57242,10.9579,9.39307
1.2838,11.1049,9.75452
1.03828,11.031,9.95258
0.765121,10.742,9.97034
0.425247,10.3619,9.92416
0.11203,10.0073,9.84991
-0.10051,9.78072,9.87033
-0.0127716,9.78552,9.77676
0.0492249,9.76413,9.69012
-0.159531,9.60719,9.9285
-0.622452,9.41905,10.0606
-1.16664,9.06879,10.0219
-1.40326,8.85465,10.1088
-1.2957,9.07914,10.3209
-1.25464,9.28716,10.5641
-1.29666,9.43527,10.7139
-1.17729,9.6525,10.8009
-0.920044,9.94174,10.8494
-0.492249,10.3648,10.8424
-0.226257,10.8248,11.2043
0.0309143,11.4149,11.6208
0.204254,11.8607,11.6697
0.00437927,11.9264,11.7065
-0.286331,11.6864,11.7833
-0.518265,11.403,11.9004
-0.633087,11.286,12.0234
-0.911484,11.1262,12.0807
-1.32968,10.7636,12.0278
-1.59814,10.5065,11.9808
-1.88986,10.2231,12.0982
-2.09352,9.86367,12.1266
-2.15947,9.76566,11.9212
-2.24634,9.62538,11.7992
-2.30498,9.37898,11.6668
-2.37804,9.18828,11.4609
-2.34819,9.0945,11.357
-2.13951,9.12144,11.263
-2.0161,9.19557,11.1158
-1.95253,9.17352,10.9397
-1.75357,9.15697,10.9896
-1.66711,9.18272,11.0644
-1.755,9.03391,10.7604
-1.6646,8.95012,10.5611
-1.67352,8.78719,10.4797
-1.91272,8.49835,10.3384
-1.98479,8.24648,10.1686
-1.85193,8.11104,9.91949
-1.64275,8.1223,9.7309
-1.56042,8.10143,9.60085
-1.71388,7.99127,9.69976
-1.8495,7.90808,9.95414
-1.65317,8.10159,9.79121
-1.61037,8.02295,9.48776
-2.11583,7.42999,9.52391
-2.67084,6.90088,9.55811
-2.83385,6.41025,9.22336
-2.98389,5.83807,8.83963
-2.99147,5.3895,8.37135
-2.47511,4.92465,7.40419
-1.88406,4.43018,6.29297
-1.50404,3.94525,5.40074
-1.48026,3.36667,4.74052
-1.8121,2.51572,4.21855
-2.18374,1.49844,3.68672
-2.46902,0.673035,3.1991
-2.61137,0.169495,2.82452
-2.66688,-0.0677795,2.51494
-2.6681,-0.475403,2.13199
-2.67996,-1.06512,1.61089
-2.83859,-1.4559,1.3721
-2.92976,-1.74048,1.26974
-2.90946,-1.96173,1.0233
-2.76395,-2.005,0.779251
-2.56912,-1.96213,0.501556
-2.36246,-1.94174,0.320511
-2.27496,-1.97192,0.380753
-2.14902,-1.65826,0.577408
-1.81596,-1.25793,0.617065
-1.63074,-1.13126,0.483994
-1.50939,-1.13647,0.349976
-1.3593,-1.28796,0.151245
-0.977165,-1.17023,-0.108109
-0.548294,-0.984192,-0.422791
-0.602829,-1.24411,-0.644516
-0.626076,-1.61273,-0.959351
-0.359879,-1.90582,-1.52684
-0.0337753,-1.92075,-1.94191
0.252365,-1.91776,-2.19653
0.247398,-2.31177,-2.50853
-0.00401306,-2.82001,-2.84773
-0.500458,-3.48682,-3.0063
-1.01455,-3.95471,-2.8989
-1.30519,-4.12408,-2.81825
-1.51541,-4.31561,-2.85599
-1.69769,-4.57217,-2.90631
-1.96293,-4.87451,-2.93219
-2.27171,-5.20508,-2.86559
-2.43633,-5.35489,-2.78162
-2.57467,-5.48209,-2.90247
-2.65389,-5.63245,-2.98497
-2.58158,-5.50137,-2.87976
-2.36697,-5.39398,-2.93188
-1.71078,-4.88788,-3.06654
-1.00956,-4.14032,-3.16463
-0.650162,-3.8243,-3.34084
-0.544247,-3.82571,-3.38313
-0.553452,-3.76363,-3.1604
-0.547829,-3.5161,-2.87367
-0.836178,-3.59706,-2.70782
-1.13375,-3.90552,-2.75876
-1.35746,-4.16898,-2.77846
-1.79217,-4.51527,-2.76041
-2.32211,-5.04279,-2.78481
-2.82462,-5.6143,-2.8101
-3.17757,-6.0936,-2.92665
-3.71795,-6.85495,-3.14828
-4.27658,-7.54088,-3.3239
-4.46853,-7.81516,-3.41573
-4.62345,-8.10858,-3.51627
-4.68849,-8.257,-3.55946
-4.44316,-7.98814,-3.56128
-4.33057,-7.84444,-3.48242
-4.30192,-7.74463,-3.39455
-4.07153,-7.4424,-3.35394
-3.71335,-6.94285,-3.14505
-3.20802,-6.36909,-3.06461
-2.77029,-5.8149,-3.04524
-2.32123,-5.20586,-2.97628
-1.73897,-4.70849,-2.95948
-1.37419,-4.16146,-2.79153
-1.04332,-3.5832,-2.56085
-0.511946,-2.90975,-2.35772
-0.258133,-2.48741,-2.32806
-0.37505,-2.36818,-2.07783
0.01511,-1.72872,-1.75671
1.28532,-0.431,-1.7823
2.6014,0.826759,-1.84605
3.34329,1.47662,-1.9275
3.56489,1.59097,-2.04639
3.50913,1.37897,-2.16002
3.43902,1.00072,-2.36591
3.69764,0.865532,-2.75984
4.12143,0.907295,-3.19524
4.04296,0.701736,-3.35071
3.69076,0.32296,-3.39295
3.49224,0.0107193,-3.52475
3.47276,-0.0538635,-3.62379
3.8336,0.158768,-3.70724
4.06585,0.240463,-3.81065
4.11547,0.235756,-3.88129
4.2463,0.386086,-3.85151
4.08393,0.438408,-3.72871
3.87183,0.553635,-3.28638
3.81163,0.919922,-2.73318
3.54538,1.0564,-2.41287
3.15404,1.021,-2.12144
3.022,1.3116,-1.72399
2.94234,1.60557,-1.34967
2.63817,1.49593,-1.12963
2.4039,1.48722,-0.900558
2.27667,1.68419,-0.584007
2.13389,1.70493,-0.412209
1.7782,1.66333,-0.0304832
1.27058,1.61494,0.580177
0.778122,1.58243,0.8965
0.170433,1.48347,1.22074
-0.24379,1.39616,1.56178
-0.605644,1.23119,1.78891
-1.06161,0.94902,1.99767
-1.40693,0.704735,2.06654
-1.689,0.459488,2.11504
-1.9045,0.265297,2.104
-1.98861,0.126686,2.0356
-2.09278,0.0922546,2.27485
-2.73582,0.0154648,2.80176
-3.33054,0.091011,3.39692
-3.43423,0.376221,3.84006
-3.34994,0.555321,3.8964
-3.2942,0.464531,3.76556
-3.26538,0.474693,3.77031
-3.13873,0.631378,3.75934
-3.19403,0.356888,3.52362
-3.11234,0.0761642,3.22565
-2.81981,0.070694,3.03631
-2.67832,0.139359,2.84785
-2.78172,0.248207,2.92463
-2.65684,0.697502,3.32164
-2.14632,1.54773,3.57993
-1.86904,1.98344,3.75752
-1.96206,1.89585,3.92857
-2.21155,1.71525,4.07101
-2.45732,1.54343,4.03206
-2.56927,1.38751,3.78641
-2.67155,1.18756,3.86117
-2.80578,1.08684,3.96042
-2.86718,0.961304,3.74332
-2.79165,0.893936,3.70453
-2.85425,0.84433,3.757
-3.04672,0.582443,3.65187
-3.08739,0.498077,3.55438
-3.14266,0.536392,3.5546
-3.19785,0.468414,3.59247
-3.07501,0.632889,3.60866
-2.81911,0.971634,3.74768
-2.59576,1.20775,3.96034
-2.37596,1.45796,3.94858
-2.18707,1.83932,4.06511
-2.15067,2.08499,4.22289
-2.08657,2.16583,4.13699
-1.73645,2.41675,4.12099
-1.40524,2.66475,4.08037
-1.37967,2.70277,4.02362
-1.45674,2.68376,4.08804
-1.5275,2.68492,4.14531
-1.44851,2.66084,4.13324
-1.3247,2.61298,3.935
-1.29577,2.43195,3.71352
-1.26027,2.20724,3.48848
-1.08174,2.119,3.15469
-0.570343,2.22568,2.80939
0.0549088,2.41954,2.32434
0.334778,2.23701,1.79745
0.419655,1.87801,1.41116
0.738522,1.81169,1.08945
1.53026,2.32373,0.730042
2.31402,2.92813,0.50386
2.69254,3.02016,0.261368
2.69638,2.5787,-0.171341
2.44369,1.89453,-0.568329
2.51811,1.40425,-1.03972
2.79741,1.08205,-1.68201
2.84462,0.733505,-2.14777
2.72831,0.161057,-2.53461
2.7117,-0.222305,-2.89131
2.78881,-0.538208,-3.35831
2.77598,-1.05629,-3.85617
2.8018,-1.328,-4.09885
3.00083,-1.39732,-4.34183
3.0819,-1.7637,-4.75168
3.04512,-2.13589,-5.11078
3.10967,-2.22482,-5.32861
3.20102,-2.25407,-5.52872
3.38596,-2.21255,-5.66191
3.50123,-2.3409,-5.82098
3.6467,-2.37761,-5.99451
4.29944,-1.87749,-6.16893
4.96988,-1.27208,-6.21742
5.32772,-0.886063,-6.22531
5.6171,-0.507172,-6.17973
5.73912,-0.239014,-5.9713
5.59407,-0.267456,-5.84633
5.57443,-0.315979,-5.81946
5.73431,-0.169189,-5.7792
5.74129,-0.0679321,-5.75143
5.88505,0.0939331,-5.75627
6.08185,0.415924,-5.73199
5.9246,0.518845,-5.52462
5.5579,0.25293,-5.42204
5.13137,-0.19693,-5.39864
4.73809,-0.545868,-5.3051
4.39026,-0.880661,-5.29174
4.04447,-1.21669,-5.27868
3.66677,-1.59782,-5.284
3.34161,-1.92484,-5.219
2.94992,-2.33356,-5.28956
2.29767,-3.04031,-5.45415
1.73643,-3.60539,-5.45391
1.35727,-3.94792,-5.31952
1.01283,-4.23598,-5.22739
0.824677,-4.4798,-5.24741
0.722069,-4.65959,-5.31863
0.74794,-4.67561,-5.40455
0.96312,-4.54489,-5.40686
1.20534,-4.35036,-5.41815
1.41799,-4.1329,-5.3447
1.07578,-4.05656,-5.0818
0.06147,-4.3496,-4.45333
-0.62542,-4.79021,-4.02412
-0.750557,-5.12516,-4.22219
-0.805786,-5.4342,-4.56213
-0.582993,-5.56346,-4.94053
-0.386497,-5.61951,-5.1753
-0.516113,-5.75443,-5.1774
-0.671608,-5.88221,-5.1665
-0.817131,-6.24685,-5.34779
-1.08989,-6.74507,-5.64286
-1.57778,-7.22063,-5.70947
-2.09641,-7.64488,-5.52641
-2.60901,-7.98335,-5.34657
-3.11543,-8.24808,-5.08791
-3.51962,-8.35462,-4.82634
-3.61507,-8.35661,-4.72225
-3.63924,-8.1494,-4.48132
-3.98626,-8.04136,-4.04663
-4.4448,-8.167,-3.61237
-4.61089,-7.97285,-3.35007
-4.63178,-7.70727,-3.18581
-4.68037,-7.64822,-3.011
-4.45377,-7.35485,-2.95441
-3.91396,-6.64204,-2.76991
-3.12814,-5.61688,-2.46114
-2.60452,-4.72776,-2.0776
-2.46517,-4.25571,-1.72012
-2.516,-4.1172,-1.57527
-2.84832,-4.21874,-1.36496
-3.32189,-4.47206,-1.24074
-3.70866,-4.77894,-1.17255
-4.03385,-5.00296,-0.99865
-4.47191,-5.28917,-0.877068
-4.7761,-5.62608,-0.854912
-4.98142,-5.92916,-0.881752
-5.30565,-6.19993,-0.892105
-5.65235,-6.3884,-0.777039
-5.92409,-6.49913,-0.622086
-6.19331,-6.64014,-0.5271
-6.28199,-6.66917,-0.431625
-6.09128,-6.36375,-0.39975
-5.82977,-6.03233,-0.284485
-5.66602,-5.88367,-0.156311
-5.61514,-5.79636,-0.162155
-5.43082,-5.61891,-0.211945
-5.21024,-5.34218,-0.108353
-5.07214,-5.07584,0.10321
-4.91592,-4.85658,0.103195
-4.70184,-4.63747,0.0835724
-4.47464,-4.4113,0.149872
-4.31068,-4.19362,0.127213
-4.11727,-4.06534,0.0668335
-3.95805,-3.97707,-0.0234222
-3.75597,-3.83775,-0.138824
-3.44523,-3.71709,-0.229095
-3.25174,-3.58475,-0.306793
-3.14822,-3.55949,-0.415665
-2.91724,-3.55391,-0.555099
-2.60091,-3.34514,-0.648056
-2.27309,-2.87149,-0.576218
-1.83903,-2.28249,-0.549698
-1.68892,-2.1472,-0.551926
-1.73742,-2.18002,-0.399063
-1.65094,-2.03853,-0.357758
-1.70465,-2.14687,-0.442245
-1.50685,-2.13554,-0.540665
-1.1685,-1.84169,-0.607574
-1.15015,-1.91051,-0.711487
-1.31637,-2.37193,-0.925201
-1.66286,-2.89922,-1.15016
-2.08255,-3.3179,-1.2366
-2.42,-3.6412,-1.26364
-2.59774,-3.75639,-1.18057
-2.42652,-3.4393,-1.00932
-2.07117,-2.96719,-0.912491
-1.44718,-2.34259,-0.845413
-1.09151,-2.04813,-0.894012
-1.37168,-2.30829,-0.924789
-1.48984,-2.44678,-0.973511
-1.64717,-2.67767,-1.12392
-1.92328,-2.95828,-1.15419
-2.0507,-3.04129,-1.03395
-2.09288,-2.87952,-0.808456
-2.13692,-2.67978,-0.552383
-2.03905,-2.51102,-0.379105
-1.97893,-2.0983,-0.174026
-1.85851,-1.62646,0.123322
-1.42149,-1.14398,0.365234
-0.961075,-0.563324,0.401825
-0.650177,-0.0462646,0.537262
-0.740295,0.0484314,0.829498
-0.961105,0.019165,0.969833
-1.09232,0.0949707,1.15215
-1.29662,0.0775452,1.35287
-1.22722,0.319733,1.5331
-0.9552,0.694824,1.64105
-0.848892,0.876862,1.60164
-0.665833,1.01001,1.56134
-0.499802,1.06012,1.52583
-0.568832,1.03961,1.58388
-0.496323,1.13733,1.62135
-0.283813,1.33881,1.57545
0.108002,1.71143,1.54305
0.407745,1.77173,1.37173
0.511337,1.51599,1.03384
0.683441,1.46591,0.860977
0.673294,1.55017,0.965775
0.7314,1.5759,0.929733
0.682648,1.48013,0.85585
0.430695,1.43268,0.981461
0.466965,1.46027,1.00111
0.466385,1.55844,1.13107
0.232681,1.61942,1.50923
0.163193,1.80783,1.77274
0.364487,2.10864,1.79185
0.73819,2.32999,1.66035
1.12975,2.57977,1.43052
1.43503,2.82654,1.29759
1.63161,3.06284,1.44226
1.82137,3.45139,1.59889
2.03883,3.83496,1.70541
2.22728,4.16171,1.85369
2.43619,4.62677,2.11337
2.73934,5.11787,2.35516
3.08285,5.55167,2.46718
3.2312,5.81281,2.55719
3.16854,5.89651,2.67644
3.14027,6.05724,2.88145
3.29493,6.36404,3.02924
3.42972,6.50491,3.07298
3.44297,6.55592,3.14257
3.36943,6.67773,3.26559
3.28273,6.65895,3.39285
3.26588,6.68552,3.46692
3.30106,6.78412,3.50478
3.37828,6.89119,3.59061
3.4675,7.11707,3.73257
3.54054,7.31384,3.82426
3.6327,7.50528,3.90888
3.61932,7.55855,3.91724
3.51365,7.4744,3.89002
3.86195,7.83743,3.95176
4.39721,8.39151,4.05676
4.58757,8.62957,4.14945
4.58337,8.66614,4.07613
4.59465,8.74973,4.12767
4.49738,8.75195,4.22843
4.25714,8.49273,4.24742
4.05363,8.23932,4.24096
3.80972,7.96197,4.09932
3.49394,7.50739,4.03792
3.2204,7.19701,4.04093
3.34274,7.26627,3.9696
3.73449,7.63345,3.97726
3.93437,7.89608,3.97852
3.88511,7.77199,3.85696
3.67011,7.3287,3.69514
3.36795,6.96999,3.69031
3.04576,6.83154,3.83452
2.98572,6.8487,3.86978
3.04211,6.91618,3.7678
2.94795,6.59487,3.61059
2.73285,6.1596,3.51286
2.51385,5.98706,3.47953
2.55138,5.98792,3.37467
2.65901,6.02621,3.24997
2.7298,6.0479,3.21102
2.82748,6.01708,3.14431
3.0598,6.2768,3.11691
3.76068,7.22314,3.32952
4.47022,7.98654,3.52704
4.64633,8.05243,3.43899
4.36178,7.76531,3.31055
3.84289,7.16138,3.27914
3.51484,6.65913,3.15966
3.35292,6.39359,2.97694
2.96411,5.87793,2.80866
2.39662,5.0168,2.5638
1.59335,4.0535,2.39735
0.651405,3.084,2.3535
0.0386658,2.37561,2.31653
-0.0721283,2.20921,2.25963
-0.0189438,2.25723,2.28838
-0.0236282,2.16679,2.34338
-0.03479,2.04225,2.25616
-0.106873,2.03363,2.11732
-0.0171509,2.31876,2.20962
0.197235,2.65077,2.39539
0.617676,3.01166,2.39631
1.14915,3.25148,2.19279
1.38752,3.22206,1.90018
1.57589,3.1833,1.60062
2.07974,3.34273,1.2615
2.70864,3.68837,1.0051
2.98884,3.78738,0.775352
3.01624,3.49942,0.405487
2.90855,2.93651,-0.00952911
2.65336,2.48511,-0.234306
2.43777,2.26465,-0.247948
2.29385,2.06215,-0.274399
2.19698,1.80286,-0.37265
2.33604,1.91158,-0.440971
2.75157,2.52153,-0.312828
2.91328,2.86311,-0.057106
2.80199,2.8264,0.122253
2.6736,2.81819,0.186478
2.43345,2.75555,0.199394
2.43753,2.77483,0.323921
2.60969,3.15915,0.626999
2.61805,3.6203,1.03641
2.80079,4.03516,1.28395
2.83945,4.17679,1.35535
2.57143,4.07611,1.54469
2.27538,3.82169,1.62086
2.04916,3.42285,1.42644
1.95038,3.13992,1.14325
1.80055,2.68564,0.779709
1.70558,2.16672,0.466171
1.62109,1.80933,0.287582
1.55339,1.66324,0.202759
1.56325,1.55344,0.0810547
1.35873,1.18979,-0.0932922
1.03476,0.831726,-0.239044
0.975296,0.774933,-0.246506
1.12361,0.949615,-0.155914
1.15231,1.15707,-0.0330048
1.1985,1.36563,0.0798492
1.19951,1.28683,0.00231934
1.00739,0.812317,-0.248581
0.887115,0.468475,-0.393829
0.882599,0.329468,-0.563354
0.863602,0.117065,-0.865334
0.82431,-0.208374,-1.0162
0.697418,-0.565826,-1.09155
0.392502,-0.990112,-1.24459
-0.0315704,-1.50604,-1.41491
-0.457626,-1.89355,-1.49277
-0.679779,-2.12274,-1.48782
-0.723694,-2.35794,-1.49535
-0.894226,-2.53949,-1.51186
-1.10829,-2.69257,-1.55347
-1.19881,-2.78159,-1.60471
-1.28256,-2.86951,-1.61073
-1.3735,-2.9342,-1.56034
-1.33434,-2.61484,-1.29562
-1.24117,-2.13419,-0.85891
-1.23428,-1.87926,-0.654457
-1.10313,-1.73347,-0.645004
-0.882874,-1.55014,-0.681252
-0.756805,-1.39067,-0.697853
-0.815262,-1.43123,-0.593102
-1.05415,-1.62297,-0.528679
-1.20921,-1.76436,-0.619072
-1.19617,-1.90271,-0.747849
-0.936111,-1.84602,-0.86808
-0.423615,-1.41383,-0.959305
-0.105576,-1.10176,-0.995331
-0.346954,-1.42026,-1.06422
-0.799408,-1.82909,-1.11524
-0.75853,-1.81238,-1.17307
-0.5961,-1.76506,-1.16493
-0.866974,-1.90331,-0.983543
-1.43547,-2.3266,-0.882767
-1.90689,-2.81804,-0.998329
-2.06738,-3.1071,-1.13506
-2.11326,-3.23488,-1.18169
-2.11292,-3.32922,-1.26035
-2.37709,-3.69489,-1.31478
-2.74596,-3.99016,-1.16424
-2.56961,-3.75343,-1.18264
-2.15443,-3.60786,-1.49617
-1.96687,-3.75494,-1.69334
-1.73352,-3.64513,-1.88099
-1.50521,-3.56726,-2.13036
-1.51463,-3.75598,-2.28317
-1.28913,-3.7518,-2.45763
-0.808662,-3.50711,-2.66753
-0.485931,-3.38379,-2.89246
-0.0656128,-3.22696,-3.14655
0.405014,-3.03886,-3.37214
0.333733,-2.94734,-3.25782
0.252701,-2.65097,-2.9561
0.66214,-2.155,-2.85254
0.936943,-1.90039,-2.73383
0.899918,-1.74005,-2.59265
1.15151,-1.24007,-2.45414
1.59898,-0.738892,-2.3072
1.8126,-0.421951,-2.21643
1.943,-0.271225,-2.21614
1.9333,-0.33609,-2.23698
1.81934,-0.56665,-2.375
1.45685,-1.05615,-2.50901
1.00487,-1.40439,-2.41247
0.626564,-1.56029,-2.26886
0.0374374,-2.14113,-2.2953
-0.400162,-2.73653,-2.41905
-0.48967,-2.88693,-2.59245
-0.511681,-3.05458,-2.61209
-0.483833,-3.20871,-2.5942
-0.47081,-3.36479,-2.80246
-0.608559,-3.70719,-3.009
-0.826363,-3.86975,-3.01901
-0.742867,-3.66354,-2.94431
-0.512863,-3.48766,-3.03618
-0.432877,-3.48815,-3.0746
-0.343529,-3.42558,-2.96121
-0.457535,-3.37759,-2.87345
-0.618996,-3.39501,-2.75565
-0.735901,-3.37062,-2.57638
-0.858643,-3.20345,-2.29639
-1.10992,-3.13869,-2.00962
-1.35185,-3.19245,-1.85724
-1.2356,-3.025,-1.75912
-1.18644,-2.90108,-1.71767
-1.40582,-3.07677,-1.61277
-1.6242,-3.20155,-1.43858
-2.0398,-3.2191,-1.17581
-2.14771,-2.97334,-0.913464
-1.4255,-2.2512,-0.820072
-0.635231,-1.64339,-0.974649
-0.315681,-1.51327,-1.20093
-0.363823,-1.58138,-1.30805
-0.572929,-1.90219,-1.38503
-0.994789,-2.5933,-1.57543
-1.53403,-3.3806,-1.85139
-2.07359,-4.1171,-2.04063
-2.5991,-4.65718,-2.04384
-2.98074,-4.81242,-1.89573
-3.14467,-4.76076,-1.64165
-3.35677,-4.92098,-1.50653
-3.83977,-5.49466,-1.63499
-4.40598,-6.28635,-1.78173
-4.9402,-6.94978,-1.93994
-5.33427,-7.34403,-2.04615
-5.45232,-7.42557,-1.99073
-5.36543,-7.24988,-1.90158
-5.12028,-7.00251,-1.89902
-4.91125,-6.9245,-2.04738
-4.74323,-6.75454,-1.98571
-4.44979,-6.35791,-1.87122
-4.19621,-6.0737,-1.87128
-4.21297,-5.89562,-1.63418
-4.05968,-5.38898,-1.34263
-3.33601,-4.49996,-1.2324
-2.64491,-3.85096,-1.21494
-2.41625,-3.58356,-1.15959
-2.34216,-3.52008,-1.22997
-2.24932,-3.55249,-1.4755
-2.31684,-3.7488,-1.5573
-2.41194,-4.20249,-1.73952
-2.45071,-4.75729,-2.2565
-2.71707,-5.3474,-2.56208
-3.10811,-5.83708,-2.67269
-3.3149,-6.1136,-2.73889
-3.47137,-6.32968,-2.81051
-3.77876,-6.64386,-2.8955
-4.00871,-6.9022,-2.88869
-4.15189,-7.08541,-2.99578
-4.1997,-7.17574,-3.05968
-4.07556,-6.97173,-2.88406
-4.16633,-6.86794,-2.67113
-4.38385,-6.94724,-2.55265
-4.2685,-6.66647,-2.39522
-3.90884,-5.95891,-2.09427
-3.60036,-5.3017,-1.83112
-3.45677,-5.01741,-1.62469
-3.72844,-5.19501,-1.38007
-4.13014,-5.51871,-1.33616
-4.33892,-5.7059,-1.67712
-4.63293,-6.05273,-1.63151
-5.1368,-6.68973,-1.45465
-6.00159,-7.63568,-1.5634
-6.82169,-8.58298,-1.73618
-7.39341,-9.43439,-2.02876
-8.12788,-10.4533,-2.3405
-8.80243,-11.6505,-2.87848
-9.50873,-13.0808,-3.56047
-10.2031,-14.6991,-4.49664
-10.8513,-16.6325,-6.00449
-11.5031,-18.6162,-7.30013
-11.7744,-19.9062,-8.04709
-11.7833,-20.6753,-8.77924
-11.8262,-21.1532,-9.19763
-11.7298,-20.9652,-9.24959
-11.2767,-20.5576,-9.23088
-10.783,-19.7592,-8.88847
-10.3953,-18.4685,-8.06267
-10.0464,-17.5441,-7.60368
-9.29611,-16.5661,-6.60995
-7.98453,-14.8,-5.83762
-6.25616,-12.4129,-6.13365
-4.22003,-9.68115,-5.56792
-1.71887,-5.88226,-4.08681
1.2648,-0.906799,-2.16238
4.69867,5.24329,0.563263
9.0925,12.7938,3.64014
14.2747,21.682,7.52351
19.4462,31.2491,11.5435
24.6769,40.6384,16.8121
29.9096,49.7166,22.3202
34.6181,58.5436,24.5095
39.2182,67.4569,27.7291
44.0602,76.6111,32.3699
48.8846,85.959,36.7816
52.9889,94.8578,41.7197
55.9118,102.6,46.3988
58.131,108.928,50.6012
59.7955,113.698,53.7177
60.738,117.432,56.7315
60.535,119.184,59.5757
59.3032,118.626,59.7862
57.2626,116.666,59.0691
54.3134,113.758,59.1378
50.6636,109.615,58.6592
46.6876,104.36,57.4621
43.0185,98.8848,55.5686
39.6904,93.3798,53.4756
36.5359,88.6284,51.8857
33.0488,83.7045,50.3995
29.335,78.3877,48.5257
25.7612,73.5497,47.2992
22.2617,68.5392,46.032
18.0217,61.6362,43.3527
13.5212,53.774,40.0578
9.39001,46.6445,37.0362
5.43311,39.1409,33.4016
1.76746,30.1927,28.3187
-2.41382,20.3549,22.6376
-7.02032,10.1864,17.2415
-11.1113,-0.00012207,9.57654
-14.4665,-9.49768,2.81433
-17.9606,-19.6077,-1.86389
-22.1978,-31.3011,-9.02393
-26.6359,-43.1182,-16.3931
-30.6281,-53.6934,-22.9215
-33.7861,-62.1284,-28.382
-35.793,-68.245,-32.379
-36.9413,-73.0914,-35.9391
-38.0677,-77.7943,-39.5669
-39.9664,-84.1003,-44.108
-41.9113,-90.2223,-48.3417
-42.5357,-92.4177,-49.8564
-42.1161,-91.5541,-49.3383
-41.5911,-90.083,-48.3608
-40.8037,-88.0426,-47.0776
-39.4554,-84.7671,-45.197
-37.9301,-80.8364,-42.8791
-36.3157,-76.9592,-40.5935
-34.5918,-73.0479,-38.3421
-32.9996,-69.1903,-36.1812
-31.6015,-65.8386,-34.3512
-30.2576,-62.8848,-32.6633
-28.8635,-60.087,-31.1668
-27.4305,-57.4836,-29.92
-26.6197,-55.5312,-28.7814
-25.9226,-53.6614,-27.6681
-24.6352,-51.4353,-26.6411
-23.636,-49.6897,-25.9257
-22.8611,-48.3312,-25.3444
-21.7846,-46.74,-24.8063
-20.7747,-45.0794,-24.4165
-19.9039,-43.4737,-23.6049
-19.1582,-41.9584,-22.641
-18.5034,-40.4929,-21.8713
-17.6271,-38.8395,-21.0711
-17.0019,-37.4841,-20.3599
-16.723,-36.3957,-19.5719
-16.1473,-35.0056,-18.8127
-15.4438,-33.7323,-18.1955
-14.6346,-32.4889,-17.6026
-13.7885,-31.0758,-17.2836
-13.1072,-29.667,-16.7011
-12.4584,-28.2715,-15.738
-11.9641,-27.0746,-15.027
-11.4513,-25.8517,-14.3552
-10.7575,-24.6868,-13.8057
-10.1545,-23.8514,-13.4833
-9.72644,-23.1126,-13.2592
-9.38803,-22.4505,-13.0903
-9.12061,-21.8539,-12.7357
-8.70816,-21.1348,-12.5783
-7.97498,-20.2203,-12.4812
-7.4202,-19.3521,-11.9362
-7.18427,-18.7204,-11.5158
-6.48209,-17.6838,-11.2185
-5.46524,-16.3859,-10.8691
-4.40024,-15.1171,-10.6004
-3.26361,-13.7146,-10.3969
-2.36905,-12.5499,-10.1964
-1.46353,-11.4256,-9.88354
-0.494019,-10.3038,-9.83252
0.130798,-9.51782,-9.99432
0.546997,-9.02643,-9.71378
0.999329,-8.62781,-9.51529
1.36893,-8.16931,-9.45688
1.48901,-7.72882,-9.14639
1.56604,-7.12842,-8.71741
1.91043,-6.37842,-8.25259
2.23206,-5.69537,-7.86731
2.5936,-4.97266,-7.50018
2.90326,-4.45007,-7.31046
3.24579,-3.92383,-7.21127
3.55038,-3.25464,-6.81216
3.44962,-2.90973,-6.33319
3.37149,-2.78149,-6.02292
3.10248,-2.69482,-5.67419
2.81866,-2.37384,-5.19241
2.78119,-1.95831,-4.7598
2.7153,-1.75018,-4.41714
2.43134,-1.62622,-3.89938
2.052,-1.46356,-3.38437
1.97351,-1.02075,-3.0311
2.10284,-0.359314,-2.55362
2.13989,0.13739,-1.9696
1.84381,0.168518,-1.62396
1.48804,0.123596,-1.39578
1.25439,0.288025,-0.919647
1.18387,0.671509,-0.419403
1.21185,1.09033,-0.0722656
1.07947,1.32788,0.252838
0.830627,1.41669,0.554077
0.486115,1.37292,0.843658
0.0452576,1.33759,1.23044
-0.362549,1.35461,1.6803
-0.594971,1.30981,1.92203
-1.08661,0.955933,2.12491
-1.60931,0.592651,2.27155
-1.81149,0.575378,2.36374
-1.70532,1.03131,2.68277
-1.37079,1.70282,3.09088
-1.5748,1.88885,3.51288
-2.08649,1.72174,3.91541
-2.05203,2.01337,4.19629
-1.8461,2.68433,4.61966
-2.02692,3.22351,5.25589
-1.93454,3.97815,5.89816
-1.45532,5.01562,6.43423
-1.11252,5.52747,6.54855
-0.987305,5.41132,6.39548
-0.861542,5.36243,6.2067
-0.619232,5.44324,6.061
-0.637024,5.23969,5.7739
-0.687286,4.95355,5.29147
-0.624268,4.58289,5.06818
-0.680573,4.16998,4.87881
-0.623199,3.88031,4.52551
-0.609589,3.54425,4.17697
-0.671417,3.4386,4.09335
-0.46875,3.62341,4.14914
-0.2229,3.73401,3.92984
-0.052948,3.68591,3.64548
0.620117,4.19806,3.60468
1.76559,5.28809,3.5553
2.78592,6.27008,3.45612
3.7012,7.08289,3.40335
4.63287,7.76532,3.27341
5.64743,8.53851,3.0835
6.86185,9.77295,2.98758
8.1124,10.9594,2.92734
8.83423,11.5307,2.78806
9.09235,11.7,2.5997
9.37247,11.8607,2.47659
9.58411,12.0721,2.42752
9.78583,12.2424,2.35361
10.0122,12.4031,2.40103
10.1247,12.3776,2.33997
10.2052,12.3395,2.12689
10.365,12.4225,1.97415
10.6609,12.4272,1.76852
11.0022,12.3806,1.45071
11.1668,12.1895,1.08902
11.2747,11.9294,0.783844
11.4249,11.745,0.32077
11.4299,11.3736,-0.262451
11.3119,10.9965,-0.354523
11.058,10.7845,-0.209869
10.9709,10.6985,-0.218201
11.1912,10.6349,-0.424591
11.3309,10.4521,-0.775299
11.3534,10.283,-1.02774
11.4848,10.2748,-1.22641
11.7321,10.4031,-1.28949
11.8555,10.3641,-1.40292
12.0742,10.4559,-1.68182
12.2935,10.5746,-1.7572
12.1161,10.4747,-1.65784
11.7712,10.3687,-1.46371
11.8577,10.7375,-1.00143
11.9939,11.242,-0.640717
11.4375,10.6986,-0.681732
11.0382,10.3454,-0.700073
11.1018,10.6516,-0.581635
11.3747,11.053,-0.356995
11.6046,11.3366,-0.273285
11.2122,10.8588,-0.358368
10.7276,10.3748,-0.297485
10.4035,10.1813,-0.207855
10.0731,10.1206,0.040741
9.69609,10.1406,0.449646
8.961,9.80066,0.797424
8.20469,9.31461,1.02484
7.75794,9.0242,1.2153
7.23312,8.77776,1.55154
6.72452,8.44731,1.76166
6.27281,8.02353,1.69858
5.75189,7.52721,1.72632
5.44021,7.28087,1.91306
5.27097,7.35863,2.18799
4.96889,7.33459,2.34396
4.76125,7.44397,2.59778
4.72479,7.73053,3.02814
4.45921,7.76941,3.34595
4.34819,8.00406,3.64795
4.40311,8.37061,3.95694
4.38124,8.6245,4.34305
4.58154,9.16374,4.60388
4.86044,9.68993,4.82446
4.90506,10.0332,5.12781
4.7634,10.3963,5.55597
4.50839,10.5558,6.05652
3.87329,10.3687,6.48137
2.95688,9.93704,6.94714
2.36549,9.71193,7.3313
1.94363,9.48904,7.58264
1.52419,9.12082,7.74777
1.23743,8.94153,7.72594
0.77478,8.56325,7.71187
0.407318,8.06469,7.7204
0.35553,7.94865,7.63062
0.634949,8.03743,7.36502
0.903793,7.9122,6.97337
0.74498,7.67455,6.85991
0.649475,7.76003,7.0332
0.675293,8.11968,7.37726
0.630386,8.3525,7.83417
0.75856,8.68755,8.03096
1.01511,9.04436,8.04137
1.11824,9.19221,8.13237
1.02229,9.37987,8.27538
1.21155,9.686,8.45879
1.41551,9.90363,8.55067
1.29088,9.88274,8.62869
1.04221,9.54146,8.58096
0.506042,8.81058,8.31767
0.0149994,8.3941,8.30811
0.0117035,8.55438,8.47454
0.111237,8.63625,8.47674
-0.28804,8.08261,8.34676
-0.478378,7.73009,8.17049
-0.314606,7.61142,7.87025
-0.68721,6.77438,7.45516
-1.24895,5.86871,7.1008
-1.68687,5.15814,6.85264
-2.18564,4.30675,6.45848
-2.58368,3.57515,6.2195
-2.81139,3.30435,6.31582
-2.88544,3.43002,6.30602
-2.91063,3.50729,6.29375
-3.01311,3.31006,6.22775
-3.11295,3.03954,6.04316
-3.14841,2.87029,5.86962
-3.12343,2.87038,5.87354
-2.89792,3.0889,5.97617
-2.66206,3.40904,6.03526
-2.34827,3.86136,6.21603
-2.01624,4.24527,6.41786
-1.93436,4.33548,6.28742
-1.84157,4.45975,6.18539
-1.5947,4.69705,6.21725
-1.52504,4.67102,6.15668
-1.75893,4.43439,6.19278
-1.97006,4.22894,6.22243
-2.18002,3.95706,6.20428
-2.33385,3.88898,6.24964
-2.31839,3.9534,6.20729
-2.43127,3.61783,5.95874
-2.64417,3.07666,5.57913
-2.63596,2.80054,5.35486
-2.41306,2.70023,5.07942
-2.2144,2.37378,4.50313
-2.15515,1.78339,3.85178
-1.99432,1.27048,3.19595
-1.9366,0.830902,2.83286
-2.02385,0.431519,2.56883
-1.74762,0.365784,2.16605
-1.3833,0.495697,1.92665
-1.29913,0.432587,1.74658
-1.2527,0.173248,1.43903
-1.30342,-0.299927,1.00772
-1.68501,-0.914459,0.717789
-2.21298,-1.69073,0.552795
-2.57002,-2.45584,0.168961
-2.90968,-3.00986,-0.136536
-3.15738,-3.37216,-0.241516
-3.20188,-3.5022,-0.292664
-3.27422,-3.57602,-0.213898
-3.31122,-3.67844,-0.273071
-3.34222,-3.81494,-0.54808
-3.49071,-3.9537,-0.591949
-3.60583,-4.02045,-0.468414
-3.44994,-3.76086,-0.387894
-2.93665,-3.06186,-0.155991
-2.43693,-2.3714,0.0831299
-2.27901,-2.11856,0.106247
-2.11427,-2.1073,-7.62939e-05
-2.04589,-2.31604,-0.233536
-2.26671,-2.66483,-0.42775
-2.39652,-2.84198,-0.500031
-2.48154,-2.99046,-0.522949
-2.5997,-3.24501,-0.592575
-2.5847,-3.45845,-0.845078
-2.58128,-3.66992,-1.13301
-2.87632,-4.12318,-1.26201
-3.10937,-4.35994,-1.21223
-3.04429,-4.23038,-1.15431
-3.00705,-4.18497,-1.15134
-3.037,-4.15228,-1.13753
-2.95909,-4.0356,-1.13017
-2.86871,-3.95801,-1.08862
-2.78044,-3.84363,-1.14424
-2.61212,-3.70216,-1.22304
-2.32769,-3.5354,-1.22063
-1.83169,-3.03459,-1.22951
-1.54119,-2.61925,-1.14188
-1.33466,-2.35141,-0.984482
-1.02257,-1.90472,-0.83815
-0.899071,-1.64499,-0.714874
-1.02828,-1.71661,-0.644028
-1.37445,-1.96681,-0.598907
-1.57517,-2.03722,-0.500153
-1.74845,-2.18236,-0.487411
-1.96411,-2.50847,-0.506836
-2.23998,-2.62758,-0.320114
-2.58584,-2.7365,-0.190033
-2.92852,-3.01309,-0.173218
-3.3638,-3.37329,-0.158585
-3.46138,-3.52336,-0.178009
-3.3233,-3.57179,-0.233597
-3.39496,-3.79056,-0.352371
-3.42417,-3.82201,-0.385773
-3.38617,-3.81778,-0.398682
-3.31921,-3.75771,-0.428436
-2.80765,-3.30521,-0.521255
-2.18646,-2.87593,-0.695572
-2.09939,-3.06743,-0.925415
-2.45311,-3.70219,-1.17664
-2.87876,-4.16925,-1.28084
-3.11839,-4.38933,-1.31755
-3.14163,-4.55431,-1.37837
-2.81769,-4.44573,-1.55357
-2.45515,-4.22034,-1.69432
-2.52199,-4.44676,-1.80664
-2.86949,-4.87628,-2.07149
-3.15188,-5.25256,-2.23894
-3.2769,-5.50428,-2.23947
-3.65765,-5.99323,-2.33893
-3.96363,-6.49051,-2.4576
-4.21938,-6.58872,-2.35777
-4.4277,-6.59962,-2.1472
-4.29003,-6.49142,-2.115
-4.03239,-6.2862,-2.22689
-3.54607,-5.84967,-2.25587
-3.04369,-5.46204,-2.36535
-2.63626,-5.20951,-2.50453
-2.1679,-4.79613,-2.58666
-1.59497,-4.3945,-2.79442
-0.910713,-3.95275,-3.0311
-0.314125,-3.58453,-3.33501
0.137779,-3.22685,-3.46402
0.562523,-2.79805,-3.34499
1.00916,-2.50251,-3.43781
1.428,-2.27343,-3.60183
1.6559,-2.22543,-3.85065
1.79304,-2.30333,-4.07467
2.04322,-2.13746,-4.09294
2.4883,-1.64651,-4.14576
3.04085,-1.11652,-4.19349
3.48164,-0.779508,-4.24052
3.74168,-0.528143,-4.22705
3.87237,-0.320703,-4.1734
3.99764,-0.280452,-4.30729
3.93984,-0.353078,-4.30867
3.77829,-0.428415,-4.28698
3.61516,-0.520907,-4.21162
3.53982,-0.311765,-3.81195
3.56754,-0.040846,-3.5444
3.30218,-0.177681,-3.42781
3.04199,-0.128767,-3.12515
2.82802,0.102148,-2.63395
2.63728,0.200903,-2.44297
2.6397,0.286156,-2.44692
2.78265,0.343807,-2.4089
2.96182,0.567546,-2.36762
3.17484,1.08022,-2.03965
3.3236,1.70888,-1.51477
3.32284,2.37199,-0.973591
3.2499,2.92634,-0.467757
3.23228,3.33345,0.0167875
3.13672,3.63114,0.715743
2.88591,3.93647,1.1942
2.51676,4.13043,1.50092
1.97512,4.11597,2.06712
1.77149,4.45979,2.64723
1.79695,4.9479,3.10349
1.88731,5.35686,3.48727
1.89478,5.68353,3.82331
1.48228,5.62228,4.12102
1.0242,5.43261,4.43381
0.667538,5.32195,4.80491
0.173977,5.17485,5.12195
-0.338177,5.00103,5.40866
-0.668833,4.9353,5.60256
-0.999609,4.72005,5.60606
-1.26845,4.48273,5.72252
-1.45818,4.33574,5.79073
-1.82657,4.05957,5.89971
-2.23246,3.70654,6.02603
-2.53634,3.33337,5.97105
-2.68916,3.18558,5.96815
-2.70652,3.16856,5.97946
-2.72661,3.06023,5.80527
-2.82449,2.91795,5.70018
-2.94758,2.72907,5.67551
-2.88886,2.71091,5.54151
-2.74137,2.68334,5.42586
-2.92807,2.24064,5.22192
-3.39452,1.69611,5.00612
-3.65133,1.27084,4.78493
-3.4985,1.18719,4.64236
-3.3166,1.16621,4.55168
-3.4292,0.812714,4.33746
-3.72962,0.390656,4.07263
-3.89841,-0.0509491,3.78697
-3.73098,-0.266617,3.49457
-3.43927,-0.284424,3.10852
-3.34583,-0.478195,2.77393
-3.20614,-0.504715,2.64246
-3.16007,-0.654648,2.52832
-3.12693,-0.905807,2.26376
-2.76368,-0.668015,2.09721
-2.58316,-0.554459,2.0578
-2.37621,-0.373154,1.98918
-1.73406,0.211472,1.85007
-1.01188,0.709335,1.66568
-0.181057,1.30969,1.47929
0.600361,1.84319,1.22726
1.1634,2.09149,0.952667
1.43829,2.09361,0.682251
1.67458,2.10054,0.464722
2.03175,2.14153,0.0997162
2.40638,2.21469,-0.224121
2.27681,2.02966,-0.261429
1.46805,1.38788,-0.159943
1.19864,1.02664,-0.139389
1.3955,0.818787,-0.495346
1.55162,0.60762,-0.893478
1.49828,0.319656,-1.13058
1.35056,-0.00318909,-1.33136
1.36755,-0.306747,-1.61598
1.73096,-0.28154,-1.99721
2.63876,0.230133,-2.36311
3.53727,0.925217,-2.56546
4.07018,1.68866,-2.44548
4.25868,2.06477,-2.25478
4.41057,2.1944,-2.19386
4.78791,2.41727,-2.3329
5.12351,2.53542,-2.58055
5.17998,2.40706,-2.73123
4.85768,2.0103,-2.81831
4.52844,1.54617,-3.03746
4.45319,1.07854,-3.42082
4.43895,0.68187,-3.75377
4.24949,0.248901,-3.96104
3.95005,-0.114182,-4.00127
3.94456,-0.100769,-4.07483
3.91435,-0.147141,-4.16716
3.68302,-0.382675,-4.19913
3.61182,-0.537216,-4.23416
3.61602,-0.519333,-4.17326
3.65692,-0.376328,-4.02641
3.66377,-0.36705,-3.94348
3.53605,-0.513031,-4.00282
3.39819,-0.605499,-4.00399
3.18929,-0.610352,-3.81559
2.85246,-0.584747,-3.44633
2.64196,-0.45665,-3.06737
2.3862,-0.379929,-2.75061
1.91719,-0.610245,-2.52747
1.34387,-1.01085,-2.38705
0.953773,-1.27562,-2.23559
0.88015,-1.24229,-2.07948
0.762024,-1.15785,-1.98315
0.622719,-1.22488,-1.91115
0.354065,-1.51558,-1.94694
0.012085,-1.88333,-2.02982
-0.131531,-2.16042,-2.08041
-0.198013,-2.35201,-2.15897
-0.1371,-2.41135,-2.22899
-0.148125,-2.37572,-2.15045
-0.329445,-2.28026,-1.94064
-0.390038,-2.26923,-1.84542
-0.364487,-2.25627,-1.77879
-0.257904,-2.03453,-1.76833
-0.273735,-2.00117,-1.80376
-0.171959,-1.88623,-1.81971
0.197708,-1.51729,-1.72974
0.428802,-1.29425,-1.64873
0.700356,-0.979561,-1.72362
1.00963,-0.719498,-1.80597
0.895439,-0.806595,-1.72977
0.458694,-1.20533,-1.73819
0.136436,-1.68968,-1.92627
-0.283134,-2.15066,-1.89792
-0.780052,-2.58165,-1.83711
-1.12318,-3.09483,-1.98084
-1.49931,-3.61817,-2.04142
-1.89927,-4.06179,-2.12386
-2.24574,-4.59252,-2.33939
-2.4663,-5.04199,-2.51854
-2.80781,-5.46632,-2.62293
-3.00257,-5.7704,-2.72923
-2.82642,-5.732,-2.90949
-2.83546,-5.75588,-2.96443
-2.88859,-5.90474,-3.03495
-3.05846,-5.97891,-3.00742
-3.28997,-6.0787,-2.84042
-3.38074,-6.26897,-2.86369
-3.54436,-6.47775,-2.87257
-3.65302,-6.4376,-2.81923
-3.42262,-6.14862,-2.87569
-2.92141,-5.81818,-2.87961
-2.74787,-5.70033,-2.92729
-2.6979,-5.53861,-2.88673
-2.59994,-5.44667,-2.7549
-2.83337,-5.76779,-2.86696
-3.10435,-5.93758,-2.82027
-3.21186,-5.92782,-2.68972
-3.48042,-6.20003,-2.71405
-3.79059,-6.42674,-2.6045
-3.8247,-6.31491,-2.5444
-3.70869,-6.20996,-2.55729
-3.52694,-6.33316,-2.77783
-3.39977,-6.36056,-3.03626
-3.55014,-6.549,-3.03387
-3.59853,-6.73346,-3.08795
-3.31822,-6.36714,-3.03376
-3.18771,-6.08197,-2.91953
-2.95192,-5.98412,-3.06186
-2.412,-5.70797,-3.29927
-1.96309,-5.33096,-3.3477
-1.55922,-4.88904,-3.29765
-1.15036,-4.53439,-3.52074
-0.723469,-4.48389,-3.93925
-0.403347,-4.56424,-4.13639
-0.799938,-4.85632,-4.01113
-1.30193,-5.07367,-3.78725
-1.10868,-4.77718,-3.70866
-0.727283,-4.61118,-3.91
-0.477242,-4.75268,-4.18525
-0.385288,-4.93208,-4.51579
-0.250519,-5.12468,-4.84089
0.163937,-4.89352,-5.06738
0.806686,-4.35284,-5.37885
1.59507,-4.09805,-5.8102
2.25925,-4.07549,-6.29259
2.2858,-4.07175,-6.32882
1.72643,-4.18912,-5.98856
1.26685,-4.29483,-5.64786
0.997532,-4.29324,-5.2932
0.900589,-4.02083,-4.91609
1.32164,-3.27971,-4.56561
1.66819,-2.50523,-4.11816
1.84845,-1.92195,-3.70523
1.91313,-1.51155,-3.4156
1.52012,-1.52287,-3.04478
0.916109,-1.85693,-2.75378
0.0802059,-2.47188,-2.56601
-1.0071,-3.39455,-2.39203
-1.75462,-3.99236,-2.18539
-2.16808,-4.24698,-1.98302
-2.64338,-4.45937,-1.78625
-2.82038,-4.4397,-1.58669
-2.93571,-4.2831,-1.20671
-3.3693,-4.38959,-0.868881
-3.94427,-4.75821,-0.700394
-4.33673,-4.95891,-0.521698
-4.3996,-4.75032,-0.277954
-4.14572,-4.14246,0.0350037
-3.74482,-3.24098,0.443253
-3.32941,-2.26393,1.03522
-2.97614,-1.56433,1.5295
-2.66783,-0.786469,1.91884
-2.20371,0.271118,2.44963
-1.76476,1.12495,2.88062
-2.00017,1.10641,3.06009
-2.40402,0.902908,3.33244
-2.04875,1.41245,3.50827
-1.50707,1.97118,3.51105
-1.22864,2.38354,3.63896
-1.34179,2.40654,3.72173
-1.9189,1.89339,3.74107
-2.41151,1.43092,3.78418
-2.7625,1.21614,3.94691
-3.02086,1.05699,4.13438
-3.09613,0.935745,4.04036
-3.3071,0.805862,4.02657
-3.5154,0.601593,4.14804
-3.34459,0.925995,4.38544
-3.14588,1.48122,4.65791
-2.92117,1.79474,4.74751
-2.69286,2.13916,4.84302
-2.7557,2.34978,5.03992
-2.76368,2.45642,5.21376
-2.7886,2.45793,5.39072
-2.87724,2.36777,5.3841
-2.85471,2.51677,5.37172
-2.72072,2.86096,5.6098
-2.5575,3.14433,5.77441
-2.53099,3.51802,6.07695
-2.49637,3.895,6.41011
-2.52931,4.00861,6.52696
-2.60536,4.05174,6.60157
-2.52342,4.13205,6.71006
-2.57339,4.13622,6.97127
-2.64481,4.2832,7.14217
-2.54472,4.53476,7.12924
-2.39984,4.75143,7.1437
-2.20609,5.1344,7.21309
-1.95972,5.54782,7.32293
-1.80801,5.78984,7.4971
-1.66327,6.17325,7.78859
-1.101,6.97746,7.95922
-0.413513,7.58539,7.84081
-0.0745392,7.7641,7.83592
0.100494,7.84207,7.84043
0.271866,7.9211,7.66468
0.412186,8.00116,7.5407
0.543671,8.01561,7.42663
0.687149,8.07175,7.34285
0.876022,8.19656,7.26817
0.963791,8.16419,7.15211
0.785141,7.84367,6.96666
0.623016,7.48154,6.85521
0.56572,7.25075,6.87607
0.531647,7.16571,6.87531
0.547012,7.17365,6.6651
0.485489,7.26164,6.67534
0.365463,7.30641,6.89841
0.450684,7.39933,6.94597
0.763,7.61863,6.86037
1.22003,7.86047,6.6149
1.45676,7.90896,6.46971
1.51344,7.87156,6.38831
1.81828,8.13776,6.23218
2.22607,8.38616,6.18251
2.65486,8.61757,6.0314
3.45197,9.31299,5.82404
4.39597,10.2518,5.78088
5.05287,10.8051,5.63217
5.37056,10.8255,5.44417
5.04033,10.4628,5.46558
4.5871,9.97675,5.43359
4.39524,9.49355,5.14423
4.17558,8.84365,4.67436
3.96428,8.01549,4.09785
3.78841,7.24229,3.44257
3.72141,6.55869,2.771
3.6472,5.96758,2.23923
3.62804,5.64122,1.82558
3.88644,5.60873,1.55969
4.01553,5.59383,1.5262
4.06384,5.55872,1.45958
4.33738,5.72626,1.284
4.56223,5.86986,1.22867
4.80266,5.89468,1.15298
5.24915,6.28072,1.11108
5.97779,6.99113,0.998138
6.84081,7.52559,0.665527
7.29557,7.63542,0.378418
7.24952,7.48619,0.241516
6.89677,7.13026,0.186157
6.69399,6.77284,0.0546875
6.96114,6.88699,-0.0190125
7.27276,7.11943,-0.0479431
7.0647,6.86438,-0.0889893
6.74467,6.50592,-0.139984
6.57289,6.13177,-0.393585
6.25331,5.57339,-0.669159
6.05516,5.24896,-0.837158
5.89615,4.95996,-0.985809
5.63714,4.50522,-1.12866
5.31185,4.16119,-1.09064
5.25994,4.16531,-1.00916
5.34201,4.2605,-0.974487
5.06411,4.07919,-0.890686
4.59848,3.67493,-0.81366
4.23745,3.44586,-0.812622
4.17372,3.38156,-0.955322
4.29382,3.32462,-1.09402
4.40188,3.35599,-1.10219
4.17676,3.16745,-1.06551
3.77561,2.72037,-1.1132
3.55822,2.2377,-1.26384
3.26075,1.69275,-1.46245
2.97735,1.20056,-1.68512
2.82375,0.728912,-2.12338
2.69665,0.277161,-2.53029
2.54667,-0.0518494,-2.58742
2.27954,-0.338928,-2.5798
2.12157,-0.556763,-2.70876
2.10743,-0.746216,-2.88393
1.96857,-0.990112,-3.00778
2.00681,-1.24777,-3.25987
2.19794,-1.54785,-3.68785
2.01926,-1.99075,-4.07498
1.7873,-2.53802,-4.50388
1.72459,-2.99054,-4.83945
1.61569,-3.34619,-4.94646
1.55252,-3.59549,-5.10538
1.57352,-3.57458,-5.12247
1.56407,-3.49185,-5.00615
1.50549,-3.52084,-4.97585
1.46928,-3.52917,-4.97087
1.54974,-3.39267,-4.92575
1.69897,-3.20129,-4.90132
1.8374,-3.06198,-4.92418
1.86961,-3.0311,-4.89555
1.78824,-3.05026,-4.84914
2.01085,-2.68048,-4.71654
2.97067,-1.55386,-4.53778
3.89719,-0.47049,-4.34641
3.94275,-0.234528,-4.20599
3.48846,-0.573761,-4.1637
3.1187,-0.965973,-4.14558
2.60324,-1.46683,-4.04594
1.8624,-2.1134,-3.96985
0.971924,-2.88892,-4.02029
0.263504,-3.59274,-3.94634
-0.033371,-4.10272,-4.02802
-0.38089,-4.82883,-4.39501
-0.73468,-5.4617,-4.6266
-0.902267,-5.78455,-4.80434
-1.03142,-6.0076,-4.96182
-1.03531,-6.08492,-5.10702
-0.524567,-5.75905,-5.31834
0.0862885,-5.29831,-5.42895
0.510025,-4.97723,-5.5921
0.791611,-4.7804,-5.63901
1.03499,-4.53076,-5.52649
1.07782,-4.40164,-5.48945
0.99379,-4.51909,-5.47198
0.968338,-4.81638,-5.68847
0.57373,-5.31223,-5.8633
0.229355,-5.56537,-5.8138
0.00793457,-5.9079,-5.87463
-0.30986,-6.23061,-5.85698
-0.396103,-6.04681,-5.65153
-0.339935,-5.87448,-5.52417
-0.259293,-5.80898,-5.45929
-0.0121002,-5.52661,-5.4254
0.26828,-5.30644,-5.49996
0.120941,-5.27798,-5.31349
-0.380402,-5.28963,-4.88734
-0.666611,-5.19107,-4.5005
-0.592804,-4.76727,-4.20945
-0.385849,-4.27464,-4.0269
-0.183899,-3.96178,-3.81726
0.074585,-3.58913,-3.73534
0.379089,-3.19022,-3.64291
0.767746,-2.86316,-3.59356
1.24872,-2.545,-3.76413
1.36418,-2.50893,-3.78673
1.07428,-2.63467,-3.60759
0.725128,-2.80163,-3.56293
0.567032,-2.95547,-3.55997
0.760025,-2.75679,-3.48498
1.00217,-2.38952,-3.39102
1.0097,-2.2114,-3.26681
0.522842,-2.44766,-3.02667
-0.318817,-3.06604,-2.7974
-0.815582,-3.51846,-2.73436
-1.24077,-3.79208,-2.62467
-1.84444,-4.28143,-2.54216
-2.30042,-4.82545,-2.53535
-2.71983,-5.16154,-2.45515
-3.24112,-5.51596,-2.24206
-3.84392,-5.88727,-1.99738
-4.4201,-6.22971,-1.87627
-5.16895,-6.8401,-1.70321
-5.71677,-7.31027,-1.54132
-5.64359,-7.39676,-1.64596
-5.61621,-7.46224,-1.76056
-5.69353,-7.52268,-1.86907
-5.5202,-7.54128,-2.10107
-5.46041,-7.67582,-2.20143
-5.47323,-7.7936,-2.28354
-5.3148,-7.70334,-2.35119
-5.00914,-7.2623,-2.31062
-4.5517,-6.67667,-2.24478
-4.41752,-6.52479,-2.13304
-4.43685,-6.51495,-2.05611
-4.53889,-6.53512,-1.89659
-4.79395,-6.6205,-1.79866
-4.9872,-6.70799,-1.85191
-5.18372,-6.89347,-1.75943
-5.35575,-7.01565,-1.64264
-5.4499,-7.12248,-1.65189
-5.47057,-7.12614,-1.65456
-5.54535,-7.0919,-1.63153
-5.5546,-7.06641,-1.49536
-5.52951,-6.90868,-1.29053
-5.49966,-6.82639,-1.32588
-5.42422,-6.72646,-1.30058
-5.18966,-6.29964,-1.10428
-4.82626,-5.795,-1.00742
-4.54061,-5.27693,-0.791428
-4.27368,-4.88718,-0.566559
-4.17519,-4.77364,-0.524109
-4.15303,-4.68361,-0.626816
-4.00425,-4.56404,-0.601715
-3.90777,-4.49077,-0.477295
-3.81254,-4.39456,-0.572479
-3.67755,-4.28432,-0.658554
-3.5738,-4.13136,-0.566315
-3.49267,-3.96072,-0.492844
-3.54234,-3.8548,-0.355057
-3.75618,-3.85423,-0.0721436
-3.90509,-3.76791,0.132812
-3.79423,-3.66035,-0.0611725
-3.56933,-3.79889,-0.350601
-3.52485,-4.08002,-0.530579
-3.56114,-4.42087,-0.838257
-3.52274,-4.71413,-1.10715
-3.59206,-4.90332,-1.26421
-3.32465,-4.93524,-1.58565
-2.89837,-4.86359,-1.87915
-3.02115,-4.96797,-1.93327
-3.32472,-5.20818,-1.83736
-3.5037,-5.33194,-1.9606
-3.67486,-5.5457,-2.08817
-3.77689,-5.73297,-1.8539
-3.64265,-5.60706,-1.84703
-3.49173,-5.55618,-2.04147
-3.6948,-6.05609,-2.2345
-4.2169,-6.94034,-2.55667
-4.74418,-7.80835,-3.00964
-5.35769,-8.80771,-3.4975
-6.25014,-10.358,-4.0482
-7.19176,-12.0774,-4.92297
-7.96623,-13.5548,-5.81918
-8.71967,-15.1576,-6.42307
-9.4182,-16.7509,-7.24358
-9.65355,-17.8088,-8.15984
-9.56279,-18.3178,-8.79796
-9.80875,-18.9602,-9.13908
-10.0014,-19.2987,-9.25471
-9.84947,-18.8265,-8.92181
-9.88013,-18.0876,-8.07019
-9.57597,-16.818,-6.94171
-8.77942,-15.4202,-6.00885
-8.11617,-14.428,-6.06058
-7.38057,-13.4415,-6.1774
-6.14655,-11.9,-5.74619
-4.56859,-9.63892,-5.08386
-2.60722,-6.38586,-3.84204
0.205109,-1.83453,-2.16516
3.56107,3.55579,-0.0115967
7.26707,10.2311,2.92847
11.8114,18.8315,7.23465
16.7965,28.5596,14.1012
21.554,37.9924,18.1336
25.9688,46.6565,20.2848
29.9536,55.105,24.7777
33.906,63.6738,29.3774
38.3093,72.5452,33.982
43.0289,81.6984,38.5373
47.2056,90.7885,43.4386
50.429,99.1807,48.4942
53.026,106.346,53.0274
54.6957,111.646,57.9011
55.2657,115.306,61.1761
55.0815,117.825,62.4351
53.8119,118.057,63.898
51.8515,116.329,64.2773
49.8942,114.136,63.9932
47.3874,111.352,63.6889
43.9563,106.745,62.4596
40.5701,101.581,60.6523
37.4969,96.8679,59.0795
34.3659,91.9261,57.355
31.1426,86.6494,55.3134
27.6996,81.027,53.1257
24.0676,75.4995,51.2248
20.2896,70.1193,49.5803
16.2962,63.7535,47.2862
11.6053,55.2192,43.5092
7.2016,46.5841,39.2794
3.66138,39.0979,35.1594
0.601807,31.2156,30.5594
-2.40576,22.5265,24.326
-6.10034,13.3104,17.366
-9.88239,3.60962,12.6298
-12.9965,-5.71643,7.54431
-15.6976,-14.4056,1.32141
-18.7261,-24.0895,-5.2688
-22.2096,-34.7196,-12.4833
-25.5352,-44.8386,-19.1792
-28.462,-53.7928,-25.2021
-30.5795,-60.5259,-29.762
-31.7212,-65.1477,-33.4265
-32.5875,-69.0941,-37.1219
-33.9191,-73.8936,-40.3582
-35.7552,-79.7557,-43.8337
-36.8662,-83.603,-46.5804
-36.6437,-83.8003,-46.9867
-35.804,-82.309,-46.3221
-34.864,-80.443,-45.4064
-33.7827,-77.9754,-44.1515
-32.3099,-74.6645,-42.3104
-30.7647,-71.1407,-40.3653
-29.3588,-67.9602,-38.6166
-27.8868,-64.7587,-36.7766
-26.279,-61.386,-35.0098
-24.6619,-58.1738,-33.4641
-23.64,-55.6556,-31.9196
-23.049,-53.6821,-30.4292
-22.549,-51.765,-29.0598
-22.1009,-49.999,-27.8653
-21.1753,-48.03,-26.7937
-20.1574,-46.131,-25.8889
-19.5057,-44.8171,-25.3463
-18.9596,-43.486,-24.6263
-18.0823,-41.6748,-23.4901
-17.1955,-40.0422,-22.6492
-16.8005,-38.8972,-22.0482
-16.2045,-37.4065,-21.2131
-15.4271,-35.7108,-20.3034
-14.7947,-34.2823,-19.4456
-14.2311,-32.848,-18.6057
-13.6369,-31.4174,-17.725
-12.6519,-29.7924,-17.1269
-11.636,-28.0457,-16.6395
-10.9,-26.6592,-15.7686
-10.3802,-25.6944,-15.1944
-10.1192,-24.9941,-14.8819
-9.76628,-24.285,-14.5112
-9.32747,-23.679,-14.3323
-9.10945,-23.3555,-14.2061
-9.00352,-23.1649,-14.1157
-8.77049,-22.9741,-14.116
-8.47284,-22.6796,-14.1392
-8.02591,-22.1182,-14.1865
-7.31595,-21.07,-13.8017
-6.56461,-19.8532,-13.2337
-5.56998,-18.4868,-12.9597
-4.31354,-16.9962,-12.6553
-3.44873,-15.6563,-12.1543
-2.99432,-14.6,-11.5622
-2.53613,-13.6418,-11.0465
-1.99976,-12.6071,-10.5434
-1.45886,-11.6196,-10.0498
-1.10599,-10.8256,-9.80644
-0.998718,-10.2733,-9.38701
-0.780518,-9.64624,-8.79137
-0.396423,-9.0899,-8.54239
-0.144318,-8.74115,-8.45703
0.161469,-8.48438,-8.51447
0.462463,-8.16669,-8.5643
0.553314,-7.96198,-8.46234
0.754425,-7.64972,-8.36096
1.31918,-6.867,-8.12119
1.93085,-6.05658,-8.01016
2.05887,-5.3985,-7.62128
2.05383,-4.53711,-6.6434
2.65582,-3.30066,-6.03607
3.60205,-2.24512,-5.85992
4.29605,-1.53809,-5.74323
4.71796,-0.997009,-5.60049
5.0683,-0.487122,-5.40009
5.4808,0.184937,-5.18045
6.1636,1.164,-4.9624
6.81918,2.07605,-4.80313
7.12665,2.60626,-4.58807
6.89436,2.92426,-4.03021
6.33961,3.0575,-3.29382
5.83803,3.04633,-2.75613
5.20921,2.80328,-2.40866
4.41345,2.45343,-1.9707
3.65321,2.11426,-1.4621
2.9684,1.82977,-1.03082
2.4032,1.66351,-0.63797
1.84154,1.48315,-0.188538
1.06485,1.10498,0.248138
0.367615,0.79248,0.570862
-0.350128,0.490234,0.921021
-1.27097,0.175964,1.42441
-2.22437,-0.0236816,2.1019
-2.94046,-0.122681,2.72409
-3.28883,-0.119629,3.1142
-3.45523,-0.0649414,3.33286
-3.55298,0.186035,3.6167
-3.57237,0.540161,4.06439
-3.44965,1.00543,4.48489
-3.24135,1.59686,4.89182
-3.08287,2.15857,5.22855
-2.88925,2.55884,5.38492
-2.68327,2.79926,5.4549
-2.60977,3.06653,5.68686
-2.46243,3.42511,5.89572
-2.39639,3.54413,5.95047
-2.67358,3.52649,6.14673
-2.92438,3.46887,6.35071
-2.88318,3.41071,6.24042
-2.67691,3.56641,6.11569
-2.42502,3.70874,6.14438
-2.02109,3.80865,5.90012
-1.46799,4.15692,5.59277
-0.925629,4.48712,5.40439
-0.482971,4.55591,5.08902
-0.0731201,4.67456,4.77686
0.285065,4.73651,4.41254
0.614746,4.79663,4.11913
1.13623,5.19495,4.02765
1.6937,5.82227,4.0246
2.13379,6.30939,4.15062
2.46994,6.56079,4.03078
2.74219,6.70096,3.80638
3.06348,6.81039,3.68002
3.38943,6.83902,3.4541
3.71259,6.9837,3.28499
4.14235,7.2226,3.0791
4.48686,7.31332,2.87088
4.6962,7.47153,2.73575
4.95615,7.69305,2.51793
5.5098,8.11429,2.49515
6.68106,9.09222,2.45975
8.0759,10.3044,2.29016
9.07042,11.1738,2.16425
9.68719,11.5796,1.92519
10.0508,11.5932,1.50627
10.306,11.3786,1.03691
10.1098,10.9051,0.912827
9.44156,10.174,0.866013
8.92563,9.40103,0.268982
8.72453,8.80374,-0.166199
8.51172,8.20258,-0.324951
8.46615,7.6279,-0.82428
8.6395,7.15994,-1.48892
8.73106,6.60831,-2.13724
8.93032,6.08951,-2.76114
9.0185,5.63892,-3.33214
9.02945,5.22357,-3.85555
8.66677,4.42068,-4.23903
7.91891,3.42416,-4.64484
7.34341,2.7565,-4.78893
6.86231,2.17734,-4.61301
6.3473,1.49722,-4.76352
5.82153,0.730316,-5.015
5.32044,0.0896606,-5.1123
4.80899,-0.313385,-5.0686
4.49362,-0.573792,-5.05927
4.48625,-0.611267,-5.07669
4.52898,-0.593964,-5.065
4.59133,-0.518005,-5.10107
4.56256,-0.416382,-5.08047
4.48922,-0.438446,-4.92184
4.57257,-0.200195,-4.64053
4.41303,0.430481,-3.98547
4.29901,1.19296,-3.20505
4.61801,1.92343,-2.71085
4.93322,2.44559,-2.41962
5.18295,2.84506,-2.25977
5.45293,3.31345,-2.06796
5.61157,3.71323,-1.88104
5.69269,4.04059,-1.77408
5.74888,4.24033,-1.56714
5.68563,4.26808,-1.29565
5.4622,4.30412,-1.00558
5.10209,4.37741,-0.651001
4.73022,4.42665,-0.336243
4.48475,4.44562,-0.0107422
4.2077,4.41412,0.310638
3.94234,4.45326,0.569458
3.86621,4.66965,0.912231
3.87926,5.08209,1.28638
3.85283,5.41982,1.5853
3.70719,5.56139,1.86594
3.51132,5.72499,2.1972
3.43944,5.9313,2.47568
3.44997,6.23682,2.77783
3.34651,6.42833,3.08099
3.27958,6.57149,3.25684
3.35663,6.80946,3.46573
3.3842,6.95892,3.6958
3.25559,7.20982,4.06503
3.18573,7.48172,4.33533
3.08911,7.61061,4.4816
2.96043,7.75276,4.76837
2.95239,8.00313,5.07153
2.77722,8.09639,5.29657
2.37669,7.96059,5.49931
2.13417,7.82375,5.69202
2.3279,7.96693,5.75967
2.60329,8.28456,5.75136
2.72931,8.45547,5.76753
2.74203,8.59178,5.90688
2.52492,8.48116,5.9825
2.16043,8.24915,5.97026
1.89059,8.00677,5.98807
1.62785,7.56284,5.92427
1.39938,7.12204,5.74347
1.18291,6.82492,5.6017
0.909607,6.61902,5.65521
0.733673,6.58036,5.80199
0.656464,6.56603,5.87914
0.678818,6.31607,5.80869
0.699066,5.98506,5.39792
0.539474,5.70396,5.10561
0.40239,5.60305,5.16418
0.444168,5.78983,5.29121
0.756653,6.40957,5.5687
1.29601,7.12542,5.7718
1.57582,7.47276,5.89642
1.6456,7.71689,6.08888
1.72987,7.99679,6.21703
1.73869,8.16217,6.39021
1.7449,8.27138,6.53045
1.69406,8.28335,6.52972
1.44588,7.89349,6.37833
0.937042,7.25924,6.30239
0.375397,6.86142,6.48657
0.195847,6.83419,6.66764
0.12265,6.71954,6.5953
-0.322708,6.04987,6.3028
-1.06975,4.87379,5.94686
-1.95575,3.64413,5.59144
-2.63596,2.9122,5.50112
-2.88942,2.44968,5.38904
-2.88498,2.13008,5.08421
-2.89801,1.81978,4.7542
-2.98898,1.4003,4.42871
-2.96165,1.52144,4.51526
-2.871,1.8849,4.77225
-2.76875,2.00284,4.68863
-2.21779,2.29613,4.40301
-1.16335,3.02733,4.23369
-0.368973,3.75581,4.17253
-0.244263,3.89722,4.08939
-0.626343,3.59717,4.17062
-1.34088,3.23705,4.52032
-2.21652,2.70268,4.92604
-2.87314,1.96054,4.90562
-3.28885,1.19389,4.561
-3.66231,0.508575,4.29986
-3.94768,0.0409241,4.05216
-4.18416,-0.391495,3.76593
-4.4633,-0.974869,3.50083
-4.88496,-1.61102,3.2225
-5.05005,-2.18527,2.8236
-4.88464,-2.50104,2.39382
-4.82616,-2.51439,2.29286
-4.71098,-2.21384,2.5165
-4.37141,-1.65529,2.69334
-4.04023,-1.18721,2.75364
-3.90218,-0.945221,2.87395
-3.81577,-0.834717,2.92955
-3.68911,-0.818619,2.81441
-3.53839,-0.832016,2.68345
-3.48843,-0.828964,2.63927
-3.36217,-0.862061,2.48905
-3.23959,-0.966064,2.26567
-3.12066,-0.95929,2.11839
-2.82729,-0.826294,2.02058
-2.60979,-0.759384,1.89986
-2.56654,-0.843369,1.76472
-2.53668,-0.97316,1.64116
-2.35509,-1.0497,1.44802
-2.25691,-0.987442,1.34124
-2.24406,-0.794815,1.37276
-2.02414,-0.516663,1.39667
-1.65763,-0.261993,1.32439
-1.45479,-0.266037,1.20069
-1.41302,-0.313828,1.07188
-1.26257,-0.203186,0.999573
-1.15389,-0.0989227,1.04446
-1.22832,-0.0303955,1.1397
-1.29689,0.100555,1.24743
-1.24352,0.142365,1.33895
-1.03455,0.122406,1.28722
-1.00113,0.214355,1.26491
-1.06429,0.300507,1.37041
-0.95142,0.314697,1.43607
-1.03581,0.209457,1.40162
-1.03869,0.110291,1.21605
-0.725437,0.164688,0.913628
-0.45743,0.193497,0.658798
-0.225376,0.190704,0.425369
-0.0138035,0.0327454,0.140038
0.103064,-0.115753,-0.15625
0.342854,-0.210953,-0.602943
0.479006,-0.514542,-0.979195
0.442234,-0.68129,-1.08716
0.578213,-0.401291,-0.983025
0.732861,-0.0119324,-0.747711
0.61047,-0.015213,-0.636795
0.296211,-0.180817,-0.555435
0.233105,-0.188583,-0.496376
0.317196,-0.0922394,-0.440254
0.560173,0.234848,-0.371689
0.801655,0.446198,-0.408295
0.69249,0.319321,-0.379692
0.32906,0.110962,-0.253609
-0.252632,-0.284576,-0.112511
-0.744595,-0.730072,-0.00891876
-1.07634,-1.0743,0.0301056
-1.42818,-1.47069,-0.0639572
-1.81888,-2.01163,-0.241318
-2.26637,-2.60666,-0.254852
-2.60934,-2.91937,-0.222794
-2.59345,-3.05498,-0.451035
-2.52764,-3.35628,-0.813934
-2.76404,-3.76146,-1.00825
-3.18844,-4.07901,-0.920044
-3.53603,-4.22516,-0.748451
-3.57822,-4.15829,-0.605705
-3.31272,-3.71388,-0.463837
-2.85388,-3.14385,-0.392479
-2.59714,-2.83327,-0.320747
-2.6196,-2.84101,-0.234856
-2.67193,-2.9632,-0.238632
-2.68391,-2.99352,-0.266945
-2.67844,-3.04815,-0.401726
-2.58803,-3.03686,-0.519653
-2.64382,-3.03017,-0.39637
-2.46745,-2.77657,-0.299431
-1.58698,-1.89217,-0.294144
-0.846205,-1.16911,-0.384781
-0.613995,-1.18248,-0.643387
-0.791946,-1.55573,-0.837158
-1.3142,-2.18564,-0.87104
-1.83798,-2.81985,-0.903282
-2.02052,-2.88844,-0.881126
-1.73136,-2.46193,-0.812012
-1.47792,-2.08759,-0.696022
-1.38168,-2.1175,-0.715477
-1.28957,-2.26868,-0.999916
-1.33153,-2.60781,-1.30798
-1.38309,-3.08625,-1.66848
-1.14266,-3.34054,-2.18493
-0.668823,-3.369,-2.69311
0.0512695,-3.11106,-3.15954
1.08418,-2.54723,-3.63763
1.94473,-2.0216,-3.97459
2.6285,-1.45108,-3.98654
3.33691,-0.513943,-3.80969
3.96509,0.301296,-3.67936
4.35278,0.786854,-3.56093
4.24022,1.13177,-3.10899
3.72567,1.31442,-2.31198
3.12114,1.26294,-1.69753
2.5629,1.13923,-1.34583
2.41142,1.31715,-1.04278
2.68363,1.82286,-0.813625
2.84079,2.34807,-0.512394
2.66356,2.69142,-0.0213661
2.55551,2.84128,0.265194
2.35526,2.69075,0.366104
1.88364,2.3023,0.382706
1.38326,1.87533,0.644005
0.712681,1.42728,1.0322
0.0538807,1.14482,1.12213
-0.100333,1.06252,1.13866
0.110646,1.07259,1.10841
0.165185,1.30257,1.14822
-0.0984707,1.46557,1.41795
-0.517395,1.3438,1.81319
-0.910786,1.25725,2.19529
-1.08799,1.50697,2.56738
-0.945483,2.05038,3.19106
-0.878798,2.58122,3.83227
-0.979223,2.88535,3.89828
-1.05208,3.03501,3.97677
-1.15362,3.34221,4.49654
-1.22044,3.7233,4.95374
-1.25447,3.96663,5.20002
-1.33296,4.11703,5.41035
-1.48737,4.1872,5.64506
-1.76084,4.09324,5.80231
-2.16666,3.91892,6.09927
-2.51831,3.76532,6.58013
-2.76401,3.71262,6.6104
-3.03983,3.65148,6.54233
-3.24775,3.50108,6.64047
-3.35065,3.37784,6.64035
-3.37509,3.28024,6.68408
-3.42161,3.28819,6.71756
-3.63256,3.18111,6.72469
-3.97043,2.92889,6.79462
-4.25624,2.7845,6.92908
-4.42434,2.58638,7.03925
-4.37886,2.36021,6.90259
-4.21485,2.23347,6.53398
-3.9736,2.15602,6.16737
-3.48213,2.22861,5.79332
-3.05021,2.41249,5.47665
-2.88008,2.36833,5.19348
-2.60049,2.19856,4.8031
-2.18407,2.28018,4.46945
-1.87891,2.34691,4.18672
-1.71304,2.20021,3.87714
-1.67822,1.86754,3.52875
-1.68472,1.48608,3.14569
-1.58624,1.15533,2.68311
-1.30018,0.857819,2.18945
-0.968025,0.7173,1.83264
-0.91468,0.576965,1.56454
-0.945671,0.525681,1.45105
-0.884682,0.543365,1.42056
-0.970078,0.219482,1.16501
-1.02872,-0.0779114,0.896912
-0.884254,-0.172852,0.787018
-0.808929,-0.261871,0.595184
-0.832947,-0.337875,0.455841
-0.580948,-0.0986786,0.538452
-0.213219,0.333221,0.632172
-0.16153,0.384338,0.526306
-0.0374298,0.394989,0.371857
0.209351,0.559753,0.320831
0.63958,0.957947,0.264099
1.45406,1.67111,0.16037
2.03352,2.13292,0.0043335
2.37764,2.45398,-0.131348
2.93806,2.73824,-0.351959
3.5232,2.89897,-0.59787
3.7752,2.95816,-0.789551
3.93943,2.94395,-1.04813
4.09616,2.83859,-1.30676
3.83508,2.24118,-1.62076
3.31829,1.48471,-1.83911
2.83543,0.742111,-2.07294
2.30959,-0.16394,-2.48654
2.01103,-0.875305,-2.94351
2.07701,-1.26991,-3.31563
2.14351,-1.53601,-3.6701
2.29256,-1.6145,-3.9575
2.56698,-1.66438,-4.24405
2.73996,-1.70201,-4.5101
2.96108,-1.61717,-4.65779
3.59678,-1.23268,-4.95955
4.75159,-0.396835,-5.27521
5.65416,0.145813,-5.55624
6.04473,0.256943,-5.81
6.09024,0.110001,-5.93767
5.55813,-0.427414,-5.98003
5.03768,-0.791824,-5.94907
5.19948,-0.742096,-6.03275
5.36628,-0.805176,-6.12956
4.90102,-1.29216,-6.10237
4.18414,-2.00725,-6.20328
3.34786,-2.7365,-6.06023
2.31124,-3.32312,-5.62679
1.59394,-3.73048,-5.44777
1.30085,-4.25711,-5.54575
1.02375,-4.9838,-5.92633
0.864679,-5.38806,-6.24268
1.06309,-5.31873,-6.4621
1.4469,-5.17368,-6.71249
1.60083,-5.14212,-6.82484
1.64799,-5.20255,-6.91852
1.92993,-5.13524,-7.10159
2.17241,-5.03654,-7.27537
2.03516,-4.9897,-7.07031
1.82165,-4.79958,-6.69976
1.75569,-4.60052,-6.49522
1.78067,-4.43024,-6.27042
1.69255,-4.30934,-6.05604
1.54618,-4.2794,-5.89897
1.59152,-4.15774,-5.70142
1.61185,-3.9425,-5.48828
1.60167,-3.72076,-5.31218
1.53567,-3.65585,-5.14884
1.42384,-3.7089,-5.08948
1.40606,-3.68055,-5.01393
1.3467,-3.6719,-4.86485
1.20028,-3.65209,-4.7636
0.903885,-3.68848,-4.6407
0.548897,-3.88844,-4.44194
0.275948,-4.1385,-4.29168
-0.0357132,-4.25804,-4.158
-0.301407,-4.37302,-4.05395
-0.585106,-4.65346,-4.03352
-0.974426,-4.92663,-3.90123
-1.32569,-5.0596,-3.6959
-1.57234,-5.12716,-3.52223
-1.37138,-4.7563,-3.37158
-0.633286,-3.76669,-3.10508
-0.171207,-2.89088,-2.68268
-0.222427,-2.58127,-2.32413
-0.386673,-2.69353,-2.2193
-0.677513,-2.9142,-2.25863
-1.18983,-3.25886,-2.16233
-1.81385,-3.78612,-2.15411
-2.18639,-4.31447,-2.34973
-2.38377,-4.79158,-2.41835
-2.68298,-5.39002,-2.67757
-2.81744,-6.07949,-3.1755
-2.96812,-6.60269,-3.51496
-3.37332,-7.10932,-3.69944
-3.79841,-7.71055,-3.81027
-4.09798,-8.08975,-3.95881
-4.13545,-8.21544,-4.09256
-3.9196,-8.11732,-4.20809
-3.58208,-7.77938,-4.3175
-3.59594,-7.67438,-4.0678
-3.76226,-7.66292,-3.81723
-3.59953,-7.40696,-3.79138
-3.49038,-7.24641,-3.65427
-3.50693,-7.16846,-3.63937
-3.17625,-6.89491,-3.73244
-2.69062,-6.52625,-3.80037
-2.44299,-6.36426,-3.79037
-2.32369,-6.35239,-3.89625
-2.33883,-6.35618,-4.07199
-2.54209,-6.42639,-3.94476
-2.744,-6.5589,-3.8081
-2.82124,-6.66869,-3.82262
-2.80159,-6.66081,-3.78603
-2.84155,-6.50539,-3.61797
-2.85537,-6.29266,-3.52531
-2.63918,-6.01154,-3.41745
-2.56985,-5.76994,-3.15501
-2.4401,-5.45486,-2.98804
-1.87041,-4.78287,-2.98892
-1.39419,-4.18987,-2.87091
-1.28014,-3.97475,-2.64127
-0.986618,-3.76054,-2.61694
-0.538418,-3.34048,-2.68288
-0.294239,-3.00075,-2.65561
-0.194332,-2.89957,-2.67699
-0.127529,-2.78625,-2.74826
-0.0714455,-2.74301,-2.72591
-0.141796,-2.77309,-2.60999
-0.28307,-2.79079,-2.60927
-0.449799,-3.03336,-2.6209
-0.729225,-3.30229,-2.44389
-1.21011,-3.65482,-2.4012
-1.64054,-4.03389,-2.43201
-1.87226,-4.24544,-2.41089
-2.05379,-4.42468,-2.41054
-2.12634,-4.45514,-2.35463
-2.14421,-4.4566,-2.31882
-2.15856,-4.51202,-2.35063
-2.12853,-4.47018,-2.43347
-1.90628,-4.2485,-2.48914
-1.66087,-3.93912,-2.31195
-1.68139,-3.83569,-2.15938
-1.67826,-3.82278,-2.11357
-1.48859,-3.63635,-2.07504
-1.41798,-3.49384,-2.04893
-1.41843,-3.34839,-1.90384
-1.45832,-3.15607,-1.74437
-1.6037,-3.04547,-1.52292
-1.86856,-2.89371,-1.04872
-2.14281,-2.79202,-0.668381
-2.17935,-2.73758,-0.443436
-2.09489,-2.54294,-0.36348
-2.1088,-2.32004,-0.21698
-2.16737,-2.15939,0.0976105
-2.04209,-1.83591,0.240387
-1.79192,-1.41144,0.366028
-1.47933,-1.04022,0.485123
-1.43008,-0.756561,0.711975
-1.2452,-0.282013,0.928635
-0.796211,0.260651,0.975601
-0.551048,0.563721,0.974167
-0.223991,0.922058,0.998108
0.124847,1.30222,1.1738
0.445831,1.68774,1.23065
0.58287,1.85626,1.1909
0.478462,1.58405,1.12157
0.324989,1.32629,0.947998
0.255516,1.20071,0.864365
0.381645,1.20679,0.883453
0.335487,1.3219,1.06865
0.141083,1.26617,1.1804
-0.0144501,1.15308,1.2438
-0.407112,0.949402,1.38959
-0.556808,1.10416,1.63914
-0.313744,1.75079,2.0374
-0.255928,2.06857,2.34421
-0.509209,1.9809,2.56331
-0.890442,1.71143,2.66768
-1.15215,1.53738,2.72661
-1.4381,1.48282,2.9541
-1.69843,1.51114,3.31203
-1.83856,1.63205,3.53775
-1.83136,1.78076,3.58328
-1.6309,2.04422,3.64844
-1.36528,2.33389,3.66241
-1.12081,2.63318,3.73114
-0.917007,2.94852,3.90137
-0.71064,3.19739,4.03751
-0.44725,3.52383,4.13586
-0.151215,4.08533,4.29037
0.0589447,4.63089,4.66438
0.126404,4.96878,4.91898
0.189682,5.27332,5.03595
0.324234,5.65704,5.29871
0.429916,6.01147,5.4841
0.501442,6.24921,5.55621
0.670807,6.39171,5.6121
0.979805,6.5997,5.6221
1.13235,6.86163,5.7224
1.23341,7.25528,5.97147
1.33387,7.4028,6.08067
1.32423,7.25237,6.00816
1.38894,7.37596,5.96507
1.50977,7.52802,5.92886
1.62854,7.52953,5.8477
1.78625,7.52223,5.76053
1.92567,7.55115,5.64138
2.06824,7.6067,5.56182
2.20003,7.69455,5.54461
2.34193,7.79787,5.48871
2.68479,8.01167,5.40207
3.33262,8.58044,5.28521
4.06124,9.27544,5.20822
4.07788,9.1943,5.12987
3.7945,8.51631,4.79864
3.84545,7.98718,4.22305
3.70413,7.39194,3.7173
3.24536,6.69813,3.46412
2.79658,6.12666,3.36669
2.43298,5.58974,3.17945
2.08827,5.04891,2.97611
1.71376,4.43844,2.77455
1.18183,3.74859,2.5568
0.639122,3.26549,2.54935
0.49078,3.21377,2.64512
0.69294,3.43489,2.74327
1.08068,3.96409,2.92281
1.78631,4.81918,3.07301
2.31084,5.3961,3.08558
2.26769,5.48166,3.13143
2.08769,5.37855,3.24047
2.05972,5.34941,3.25031
2.20221,5.36748,3.146
2.35416,5.30447,2.95393
2.30953,5.12832,2.84086
2.10751,4.8756,2.83279
2.01784,4.77275,2.78025
2.15023,4.81087,2.67205
2.35438,4.90049,2.53249
2.56417,5.00862,2.42477
2.58738,4.95679,2.35268
2.52414,4.88768,2.32809
2.53017,4.71361,2.13824
2.64252,4.55928,1.92389
2.92311,4.78574,1.83833
3.21779,5.16324,1.83086
3.46379,5.50496,1.94965
3.79389,5.87159,2.0633
4.07257,6.1506,2.10246
4.06308,6.14734,2.13132
3.75518,5.90823,2.22832
3.26291,5.72085,2.44077
3.2343,5.75244,2.54038
3.55955,5.87161,2.37392
3.82024,5.99178,2.19521
4.14997,6.14227,1.99683
4.32528,6.17329,1.77741
4.36202,6.08455,1.64136
4.28891,5.81682,1.47121
4.16053,5.3219,1.19415
4.17879,4.98351,0.848793
4.02688,4.72607,0.741379
3.72888,4.47868,0.864784
3.75237,4.64728,0.952042
3.76326,4.9704,1.27355
3.22858,4.94351,1.80804
2.61947,4.87561,2.21401
2.32428,4.67319,2.2317
2.20832,4.19661,1.97048
2.30892,3.78813,1.50982
2.68146,3.64354,0.898331
3.15868,3.74716,0.447449
3.52856,3.78119,0.0521545
3.76971,3.58725,-0.270958
4.04688,3.34903,-0.641235
4.17976,3.15077,-1.04707
3.88245,2.73164,-1.22867
3.46836,2.12744,-1.31042
3.04769,1.49049,-1.47478
2.62116,0.948853,-1.6791
2.44294,0.704361,-1.76782
2.29996,0.495956,-1.81725
2.36134,0.491531,-1.80743
2.58059,0.641998,-1.79749
2.51694,0.634872,-1.85145
2.39949,0.597931,-1.84723
2.20415,0.370346,-1.87593
1.88791,-0.0288239,-1.95917
1.60887,-0.30806,-1.91978
1.39253,-0.496338,-1.8889
1.18079,-0.554596,-1.80627
1.28819,-0.328018,-1.72372
1.68202,0.0258789,-1.74421
2.1326,0.395554,-1.76707
2.41013,0.49147,-1.91028
2.14824,0.130417,-1.98715
1.67358,-0.475296,-2.12253
1.20482,-1.06651,-2.32664
0.728546,-1.69504,-2.46725
0.252396,-2.4541,-2.66757
-0.33255,-3.22421,-2.84593
-1.03273,-4.04805,-2.94088
-1.71736,-4.86253,-3.16586
-2.28387,-5.59335,-3.403
-2.75928,-6.24461,-3.42464
-2.88835,-6.56902,-3.66077
-2.67789,-6.60056,-3.94399
-2.78487,-6.81473,-4.02225
-3.02603,-7.06754,-4.02033
-3.08517,-7.08289,-3.95275
-3.13034,-7.14833,-3.98062
-3.13498,-7.12772,-3.94388
-3.21792,-6.9525,-3.7616
-3.12115,-6.53595,-3.52331
-2.73225,-5.87076,-3.22152
-2.39772,-5.48239,-3.14123
-2.24463,-5.34,-3.11082
-2.19393,-5.28127,-3.09395
-2.31484,-5.53034,-3.24419
-2.69962,-6.05373,-3.35395
-3.18835,-6.61288,-3.35181
-3.71278,-7.15333,-3.36823
-4.21535,-7.72716,-3.56891
-4.5462,-8.17667,-3.77163
-4.73584,-8.56787,-3.90093
-4.81293,-8.8964,-3.9819
-4.83881,-8.85531,-3.8894
-5.0424,-8.79176,-3.71177
-5.35125,-8.95836,-3.58498
-5.6561,-9.05301,-3.40466
-5.68996,-8.96176,-3.28959
-5.57158,-8.96917,-3.3723
-5.56334,-9.03232,-3.43092
-5.53555,-8.92615,-3.45432
-5.46891,-8.75712,-3.40145
-5.39993,-8.65467,-3.25608
-5.28106,-8.51885,-3.18656
-5.04008,-8.29268,-3.17456
-5.102,-8.36615,-3.13184
-5.36645,-8.63995,-3.22574
-5.50637,-8.80618,-3.24917
-5.77537,-9.07072,-3.26469
-6.2133,-9.56767,-3.30338
-6.5632,-10.1126,-3.68639
-6.98058,-10.8278,-4.24673
-7.75518,-12.0643,-4.36416
-8.6869,-13.6344,-4.87701
-9.56003,-15.0657,-5.51221
-10.3769,-16.483,-6.11572
-11.3247,-18.2181,-7.01136
-12.1142,-20.0358,-7.98042
-12.6373,-21.5078,-8.84638
-12.9849,-22.3428,-9.36137
-13.1462,-22.7257,-9.62357
-13.1459,-22.6016,-9.44891
-12.8774,-22.134,-9.1835
-12.5008,-21.5138,-8.96234
-12.105,-20.566,-8.38815
-11.6436,-19.6661,-7.98186
-10.9843,-18.9526,-7.9077
-10.0711,-17.92,-7.7886
-8.63982,-16.0715,-7.33261
-6.7365,-13.3395,-6.67015
-4.57629,-9.63229,-4.9995
-1.70482,-4.7756,-1.31757
1.9418,1.32623,0.64447
6.19669,8.71021,2.28847
11.231,17.4171,6.06218
16.7323,27.2988,10.363
22.3105,37.6385,15.2145
27.2634,46.8677,19.5366
31.3766,54.7834,23.2838
35.8381,63.5755,27.636
40.8274,73.3072,32.2628
45.0412,81.6578,37.9381
48.6647,89.4834,42.4486
51.8315,97.1905,45.2398
53.9837,103.344,49.0378
55.2614,107.919,52.4656
55.4416,110.753,55.0754
54.5896,111.702,56.7977
52.9731,110.723,57.4819
50.7082,107.918,57
48.144,104.58,56.1702
44.87,100.509,55.7608
40.912,95.162,54.6141
37.4924,90.2468,52.6197
34.761,86.0906,51.0872
32.3237,82.0249,49.4738
29.4885,77.2064,47.5135
26.207,72.0109,45.6116
23.0159,67.5676,44.4176
19.7289,63.0165,43.0994
15.9037,56.7513,40.733
11.5904,48.7112,36.4575
7.4801,40.7699,31.5388
4.12653,33.8761,28.9993
1.13269,26.1582,25.1125
-2.35468,17.1124,19.3738
-6.43878,7.62598,14.0234
-10.2103,-1.92395,8.22119
-13.4576,-11.1311,2.35791
-16.9612,-20.9584,-4.03149
-20.9346,-31.7124,-10.7429
-25.0712,-42.5643,-17.6382
-28.9803,-53.0453,-25.309
-32.404,-62.0718,-30.4852
-34.9705,-68.8634,-33.7285
-36.4611,-73.7524,-37.1763
-37.65,-78.0291,-40.1631
-39.1149,-83.1952,-43.9479
-40.3178,-88.6747,-48.2048
-40.513,-91.4799,-50.7703
-39.8633,-91.1758,-51.1447
-38.8714,-89.5664,-50.6596
-37.3605,-86.7388,-49.3474
-35.548,-82.8207,-47.1741
-33.8713,-78.6352,-44.6385
-32.1944,-74.639,-42.249
-30.5191,-70.6557,-40.0023
-28.8746,-66.6887,-37.7968
-27.3432,-63.0594,-35.6489
-26.2346,-60.1361,-33.7622
-25.4837,-58.0352,-32.4209
-24.8375,-56.237,-31.3061
-24.1192,-54.4375,-30.3596
-23.2041,-52.6166,-29.5058
-22.4061,-50.8811,-28.4634
-21.7873,-49.3092,-27.4367
-20.9342,-47.457,-26.3454
-19.8412,-45.2841,-25.2445
-18.6128,-42.9896,-24.25
-17.3132,-40.4946,-23.1439
-16.0234,-37.9766,-21.902
-14.8675,-35.728,-20.7482
-13.7705,-33.6317,-19.7104
-12.8394,-31.5556,-18.7342
-12.0177,-29.6263,-17.7141
-11.2517,-28.0887,-16.8014
-10.8128,-26.8027,-15.9629
-10.5932,-25.6145,-15.0435
-10.3061,-24.5197,-14.1812
-10.0174,-23.5728,-13.4153
-9.91927,-22.7516,-12.6603
-9.8636,-22.042,-12.0235
-9.69046,-21.3423,-11.5583
-9.55081,-20.5637,-11.1453
-9.39481,-19.7637,-10.5438
-9.258,-19.1293,-9.86887
-9.25558,-18.6069,-9.31743
-8.86636,-17.6511,-8.68257
-8.31909,-16.5399,-8.06592
-8.0824,-15.9047,-7.716
-8.16537,-15.7326,-7.50192
-8.29575,-15.5823,-7.22665
-8.26505,-15.3418,-6.9985
-8.17197,-15.1499,-7.14163
-7.78772,-14.9152,-7.28754
-7.15063,-14.6332,-7.35242
-6.54327,-14.2328,-7.57327
-5.82104,-13.552,-7.63882
-5.0668,-12.9185,-7.75153
-4.4339,-12.4409,-7.90564
-3.64886,-11.6156,-7.87744
-2.96124,-10.5012,-7.50818
-2.52344,-9.48572,-6.8743
-1.93768,-8.53455,-6.83493
-1.02875,-7.59338,-6.93607
-0.0634766,-6.64807,-6.67142
1.39874,-5.34515,-6.8154
3.10052,-3.94391,-7.04315
4.14981,-2.93939,-6.9809
4.9743,-2.10236,-6.99918
5.8739,-1.43103,-7.24753
6.74741,-0.879395,-7.57425
7.54059,-0.108459,-7.61975
8.11359,0.816162,-7.23532
8.57462,1.83972,-6.70004
8.97787,2.87408,-6.11813
9.05927,3.52563,-5.5654
8.70804,3.78711,-4.92664
8.04623,3.64447,-4.33838
7.30505,3.41748,-3.8595
6.68195,3.49573,-3.22821
6.23892,3.59485,-2.6615
5.61673,3.53625,-2.05325
4.77881,3.51398,-1.2244
3.89651,3.37073,-0.450592
3.04861,3.16571,0.177429
2.30258,3.22791,0.959686
1.48898,3.56335,2.08487
0.913879,4.05945,3.13498
0.673096,4.36621,3.7449
0.309021,4.39117,4.06519
-0.170471,4.1731,4.28387
-0.655396,3.95587,4.51523
-1.18594,3.7619,4.90836
-1.96405,3.25012,5.33081
-2.79614,2.74286,5.52036
-3.33591,2.41791,5.70761
-3.92175,2.07263,6.03983
-4.32446,2.13727,6.45236
-4.6572,2.2547,6.93723
-5.21799,1.98578,7.33652
-5.72568,1.81189,7.62299
-6.10062,1.7644,7.89343
-6.35037,1.76947,8.10672
-6.50964,1.8609,8.38559
-6.56982,2.08521,8.68414
-6.43414,2.44147,8.80334
-6.26498,2.69977,8.90402
-6.09183,2.88782,8.97321
-5.88101,3.06891,9.0405
-5.70352,3.37598,9.12964
-5.39313,3.74219,9.13345
-5.08142,3.98615,9.03201
-4.71399,4.28491,8.9444
-4.1647,4.716,8.90463
-3.56818,5.22681,8.76807
-2.98251,5.67163,8.5712
-2.34625,6.02435,8.31512
-1.67685,6.38623,8.12181
-1.01813,6.94824,7.96272
-0.267517,7.43921,7.69975
0.356445,7.70764,7.44646
0.942749,8.0473,7.07736
1.65735,8.46838,6.65547
2.36847,8.80286,6.25111
3.10287,9.11469,5.76361
3.75571,9.38281,5.52667
4.36533,9.58716,5.29892
5.01572,9.81262,4.86177
5.49158,10.0061,4.5119
6.06961,10.1987,4.12907
6.93478,10.5455,3.63503
7.58292,10.7858,3.19272
7.97842,10.7039,2.87747
8.23166,10.5701,2.45396
8.65204,10.4767,1.66219
9.10587,10.4285,1.15491
9.17319,10.2901,1.07841
9.24664,10.0003,0.745239
9.56509,9.81979,0.264221
9.9769,9.7793,-0.149445
10.3321,9.60431,-0.695419
10.5858,9.39188,-1.23305
10.7234,9.13712,-1.60649
10.6763,8.68762,-1.93356
10.6403,8.3288,-2.53233
10.7927,8.15176,-2.96039
10.9442,7.88007,-3.0258
11.0742,7.61545,-3.39948
11.2384,7.30621,-3.91522
11.1679,6.80014,-4.28586
11.0135,6.37561,-4.6017
10.9585,6.03564,-4.96574
10.9352,5.53925,-5.37468
10.7913,5.16205,-5.50142
10.5205,5.05276,-5.49052
10.4933,5.05493,-5.61861
10.7091,5.19159,-5.53658
10.927,5.35852,-5.48232
11.051,5.40598,-5.5043
10.8813,5.35574,-5.41711
10.4012,5.22107,-5.21217
10.0611,4.97766,-5.05382
9.81196,4.76529,-4.97421
9.43634,4.56012,-4.81444
9.07921,4.36932,-4.72818
8.99309,4.48044,-4.61667
8.94967,4.71283,-4.27985
8.70012,4.72644,-4.00272
8.49666,4.64529,-3.8613
8.28883,4.56351,-3.66553
7.87852,4.35587,-3.48694
7.27835,4.03745,-3.30115
6.63034,3.82932,-2.84454
5.96551,3.80663,-2.15469
5.40892,3.8179,-1.55774
5.01617,3.83154,-1.15457
4.74375,3.88428,-0.81723
4.47536,3.81863,-0.560211
4.16304,3.65649,-0.469452
3.94673,3.58847,-0.400299
3.86888,3.66818,-0.336182
3.96919,3.84984,-0.142029
4.26431,4.13441,-0.0302429
4.4753,4.55241,0.198669
4.37428,5.04379,0.811432
4.28795,5.64044,1.51599
4.27031,6.40196,2.19489
4.35153,7.17719,2.70981
4.32718,7.71327,3.27292
3.95026,7.89828,3.87796
3.5434,7.84891,4.3187
3.06778,7.67526,4.67957
2.64439,7.60669,4.96765
2.37329,7.71075,5.30795
1.95823,7.68172,5.74564
1.59311,7.74886,6.2077
1.74065,8.34258,6.65038
2.05534,8.97272,6.95197
2.28047,9.54752,7.28322
2.48953,10.1363,7.64203
2.38223,10.2424,7.84973
2.38126,10.3821,7.95538
2.59657,10.7602,8.09433
2.51549,10.904,8.38951
2.3474,11.0563,8.69507
1.92662,11.0613,9.13792
1.0291,10.5878,9.69545
0.389252,10.0418,9.70944
0.0814362,9.57595,9.4348
-0.262817,9.08265,9.29645
-0.476715,8.58628,9.00972
-0.465179,8.2279,8.67001
-0.22113,8.12526,8.3615
-0.0804443,7.96785,8.03542
-0.071228,7.67768,7.71406
-0.0144348,7.41075,7.38356
-0.173233,7.22519,7.48566
-0.397614,7.1828,7.65099
-0.60817,7.11993,7.60859
-0.826035,6.93447,7.66292
-0.701523,7.06248,7.68161
-0.24826,7.5221,7.70292
0.0619507,7.76832,7.63488
0.141373,7.7767,7.46485
0.209137,7.60577,7.32422
0.0672302,7.28851,7.20168
-0.13472,6.99678,7.29097
-0.276474,6.79568,7.32627
-0.450562,6.73172,7.19258
-0.702789,6.5383,7.2088
-1.03487,6.14203,7.13656
-1.38017,5.73288,7.01597
-1.63493,5.41542,6.97242
-1.59885,5.38411,6.97355
-1.49463,5.33372,6.90129
-1.59341,5.0956,6.73229
-1.82137,4.84358,6.69915
-1.92413,4.65277,6.66034
-2.01175,4.50502,6.52306
-2.24234,4.21317,6.42962
-2.60718,3.87477,6.44843
-3.03638,3.72221,6.61446
-3.29268,3.55217,6.71716
-3.20139,3.49164,6.60162
-2.92028,3.50458,6.41453
-2.74845,3.37241,6.17284
-2.79585,3.18526,5.99693
-2.85095,2.97598,5.93728
-2.74895,2.8719,5.63802
-2.60195,2.74113,5.32515
-2.65241,2.42293,5.12775
-2.99794,1.89194,4.87645
-3.36047,1.2204,4.65128
-3.65646,0.632004,4.37024
-3.93742,0.100082,4.06345
-4.09451,-0.459351,3.72301
-4.14176,-0.866669,3.30132
-4.20193,-1.22646,2.99274
-4.20587,-1.5782,2.68246
-4.01312,-1.85544,2.20688
-3.73825,-1.83322,1.91428
-3.50285,-1.61815,1.82603
-3.29124,-1.60609,1.64365
-3.10899,-1.72606,1.43689
-2.91356,-1.80722,1.27698
-2.66484,-1.72626,1.10986
-2.44847,-1.50047,0.920853
-2.18741,-1.27176,0.882492
-1.87786,-1.06992,0.806473
-1.55725,-0.8862,0.586685
-1.18556,-0.705093,0.464142
-1.00582,-0.644852,0.337265
-0.924549,-0.713074,0.184204
-0.922394,-0.805969,0.0748444
-0.9193,-0.951462,-0.0934448
-0.792156,-0.976425,-0.18486
-0.856535,-1.0061,-0.134338
-1.03234,-1.0182,0.027359
-1.14174,-0.754913,0.390717
-1.127,-0.499084,0.638794
-0.988615,-0.398315,0.651657
-0.741003,-0.295761,0.505859
-0.384132,-0.265564,0.119293
-0.0345001,-0.362518,-0.356995
0.0822144,-0.586136,-0.638977
0.185005,-0.566681,-0.756012
0.712603,-0.281784,-1.05014
1.2217,-0.168671,-1.42426
1.32934,-0.283859,-1.59088
1.16898,-0.428741,-1.60252
0.866362,-0.623627,-1.47536
0.751886,-0.717514,-1.40695
0.985493,-0.539017,-1.51898
1.25198,-0.503464,-1.76724
1.13158,-0.853668,-2.06259
0.982918,-1.27812,-2.32271
1.24577,-1.13638,-2.45061
1.50515,-0.802231,-2.43459
1.41877,-0.989563,-2.43619
1.10328,-1.43066,-2.53226
0.74379,-1.91023,-2.68785
0.370602,-2.29999,-2.72122
-0.124367,-2.74516,-2.60764
-0.548592,-3.20493,-2.59935
-0.721066,-3.38231,-2.67479
-0.916653,-3.52312,-2.6245
-1.14056,-3.54808,-2.44212
-1.15139,-3.44182,-2.34569
-1.07125,-3.338,-2.22313
-1.04942,-3.05917,-2.04694
-0.89764,-2.57922,-1.85249
-0.623909,-2.11021,-1.59105
-0.41367,-1.82936,-1.52275
-0.489281,-1.80698,-1.46513
-0.874611,-2.03502,-1.27856
-1.4276,-2.43196,-1.07664
-1.91177,-2.72121,-0.825745
-2.2622,-2.99728,-0.734879
-2.50699,-3.36438,-0.862747
-2.61109,-3.63184,-0.948608
-2.82918,-3.98267,-1.07137
-3.25694,-4.58141,-1.29126
-3.93605,-5.3091,-1.37557
-4.52904,-5.71388,-1.2169
-4.6777,-5.81462,-1.14139
-4.60682,-5.82885,-1.1831
-4.39122,-5.60648,-1.13337
-4.17661,-5.33191,-1.09089
-4.06579,-5.18581,-1.06497
-3.95694,-5.02775,-1.00185
-3.95962,-4.86597,-0.875984
-3.86859,-4.67141,-0.799744
-3.46376,-4.36478,-0.938484
-3.09279,-3.92363,-0.817596
-3.15109,-3.4231,-0.290001
-3.15435,-3.0298,0.0729675
-2.72942,-2.6713,0.0721359
-2.24468,-2.44934,-0.217957
-1.7658,-2.26741,-0.509964
-1.21082,-1.92375,-0.777008
-0.591721,-1.4802,-1.01751
0.0663567,-1.06138,-1.2147
0.86993,-0.658905,-1.54472
1.68616,-0.205833,-1.93394
2.21909,0.102165,-2.15173
2.52605,0.36216,-2.12602
2.62701,0.539787,-2.10915
2.80112,0.639626,-2.18542
3.18066,0.784508,-2.3353
3.34905,0.7351,-2.53753
3.62681,0.791245,-2.79431
4.32183,1.28654,-3.0145
5.04571,1.95031,-3.07489
5.51533,2.3875,-3.13511
5.77957,2.66295,-3.12419
6.18567,3.07407,-3.04639
6.53995,3.56055,-2.91692
6.77664,4.0213,-2.66946
6.7108,4.11747,-2.50185
6.11431,3.81903,-2.1189
5.37538,3.4823,-1.69937
4.59223,3.10255,-1.51984
3.85048,2.54234,-1.34232
3.2102,1.95364,-1.2559
2.71398,1.58989,-1.09672
2.23057,1.44559,-0.751102
1.87614,1.38943,-0.480877
1.94442,1.68233,-0.217884
2.00638,2.08884,0.0547104
1.75444,2.14356,0.42083
1.57024,2.1926,0.7827
1.46365,2.2953,0.903782
1.13594,2.27104,1.12506
0.730663,2.1126,1.35133
0.136593,1.92423,1.67935
-0.552261,1.75233,2.24173
-0.857136,1.8916,2.76661
-0.910156,2.33813,3.21114
-0.972694,2.57797,3.47945
-1.33153,2.4238,3.68747
-1.88639,2.03961,3.9734
-2.3718,1.63911,4.0556
-2.61348,1.30496,3.93356
-2.54342,1.18135,3.83796
-2.65936,1.04155,3.7701
-2.84749,0.901489,3.69918
-3.07594,0.901855,3.89941
-3.49936,0.768112,4.25289
-3.70871,0.589737,4.28841
-3.83294,0.428711,4.26128
-3.93853,0.31369,4.38804
-3.86222,0.2052,4.20464
-3.8819,0.0217285,3.86746
-3.92335,-0.202606,3.69754
-3.92357,-0.435471,3.52243
-3.99453,-0.580032,3.40237
-4.09088,-0.796585,3.31621
-4.20429,-1.07317,3.13821
-4.42244,-1.28777,3.1049
-4.72515,-1.53975,3.17572
-4.85387,-1.63449,3.19695
-4.78456,-1.64799,3.16457
-4.63859,-1.7178,2.92612
-4.3797,-1.66322,2.71107
-3.73435,-1.25545,2.52661
-2.90424,-0.75975,2.15282
-2.45561,-0.595627,1.85168
-2.3047,-0.595673,1.76385
-2.31079,-0.47699,1.89758
-2.48491,-0.239182,2.14072
-2.63206,-0.229477,2.41695
-2.80857,-0.279327,2.65448
-3.026,-0.333252,2.66899
-3.15176,-0.405716,2.73105
-3.20484,-0.362579,2.7571
-3.23055,-0.292007,2.81319
-3.2853,-0.210571,3.00177
-3.19607,-0.037674,3.09503
-2.93063,0.287476,3.22784
-2.56129,0.637268,3.25728
-2.05373,1.09106,3.16023
-1.6767,1.50174,3.19884
-1.54601,1.64977,3.28018
-1.44877,1.76488,3.26671
-1.1299,1.95247,3.07233
-0.657608,2.17097,2.82623
-0.253799,2.27051,2.53874
0.187782,2.2654,2.10001
0.548073,2.22845,1.6503
0.790375,2.01384,1.19637
0.969475,1.73576,0.747238
1.04098,1.49452,0.300415
1.33968,1.24377,-0.213226
1.59853,0.910553,-0.72937
1.72376,0.544464,-1.17497
1.95583,0.362152,-1.55507
2.17188,0.271484,-1.95242
2.3589,0.0751343,-2.30994
2.57988,-0.0873718,-2.67549
2.88738,-0.232758,-3.13437
3.09118,-0.4431,-3.49829
3.18346,-0.588623,-3.88797
3.3418,-0.650848,-4.18462
3.54856,-0.71608,-4.31
3.6705,-0.88739,-4.5634
3.73991,-1.02524,-4.7742
3.86251,-1.04294,-4.86827
4.03489,-1.00671,-4.9734
4.13765,-1.03053,-5.13193
4.1954,-1.09615,-5.2807
4.27226,-1.0827,-5.40343
4.39439,-1.06148,-5.46954
4.54527,-0.981201,-5.52129
4.79827,-0.557205,-5.41902
5.21542,0.0786285,-5.1512
5.47858,0.388214,-5.06032
5.53501,0.479324,-4.98434
5.40381,0.527496,-4.85994
5.09623,0.513199,-4.65536
4.84915,0.417847,-4.43543
4.6797,0.209442,-4.42516
4.43972,-0.0310974,-4.49525
4.08584,-0.31636,-4.49487
3.71418,-0.510376,-4.22099
3.40826,-0.596161,-3.96419
3.17834,-0.846085,-4.0046
2.91742,-1.16882,-4.13815
2.7851,-1.48578,-4.38276
2.66435,-1.99632,-4.66199
2.46559,-2.41504,-4.8636
2.63176,-2.31839,-4.9642
3.13401,-1.81104,-4.99474
3.6986,-1.28021,-5.05389
3.85567,-1.08995,-4.90488
3.54728,-1.2274,-4.74246
3.15748,-1.55481,-4.75535
2.71194,-1.98644,-4.73283
2.33775,-2.32366,-4.63949
1.95592,-2.68978,-4.64515
1.48518,-3.20827,-4.78977
0.9655,-3.8695,-4.92862
0.503098,-4.60505,-5.10084
0.307167,-5.07729,-5.3362
0.0199585,-5.50811,-5.5264
-0.304909,-5.84779,-5.55988
-0.651054,-6.04237,-5.41398
-1.229,-6.41788,-5.11068
-1.49736,-6.41634,-4.83075
-1.4811,-6.23022,-4.6941
-1.76523,-6.47673,-4.61724
-2.39995,-6.79718,-4.33111
-3.05563,-6.91334,-3.76926
-3.42918,-7.00725,-3.6496
-3.46175,-7.0506,-3.79016
-3.46795,-7.06123,-3.64267
-3.48344,-7.28479,-3.77514
-3.4735,-7.53831,-4.08728
-3.27539,-7.52431,-4.23289
-2.85263,-7.38434,-4.43868
-2.34237,-7.22209,-4.87046
-1.82564,-7.10562,-5.26257
-1.62512,-7.10622,-5.43476
-1.66734,-7.12819,-5.39999
-1.7599,-7.05944,-5.29713
-2.09126,-7.1566,-5.14152
-2.50993,-7.3802,-4.94898
-2.7913,-7.53774,-4.76505
-3.08691,-7.6772,-4.51296
-3.30667,-7.77003,-4.34443
-3.5369,-7.89274,-4.24079
-3.82456,-8.00656,-4.19411
-3.9607,-7.9566,-4.00497
-3.88572,-7.74541,-3.85172
-3.71502,-7.45663,-3.84783
-3.61179,-7.16176,-3.5422
-3.52425,-6.95025,-3.38564
-3.4379,-6.77289,-3.38472
-3.30491,-6.51711,-3.22981
-2.9023,-6.09924,-3.15831
-2.54775,-5.84703,-3.16673
-2.58104,-5.93575,-3.26976
-2.66416,-6.16753,-3.43939
-2.75299,-6.37103,-3.51428
-2.71013,-6.43689,-3.72672
-2.59142,-6.46191,-3.88606
-2.83951,-6.69231,-3.90076
-3.06281,-6.88657,-3.91846
-3.09822,-6.89139,-3.76653
-2.98415,-6.89543,-3.75981
-2.75714,-6.80278,-3.87572
-2.6637,-6.74463,-3.97612
-2.79868,-6.95569,-4.10213
-2.9977,-7.17578,-4.16031
-3.11298,-7.16765,-4.15463
-3.20411,-7.10011,-4.02776
-3.14241,-6.9398,-3.79956
-2.96447,-6.69241,-3.69464
-2.79384,-6.41528,-3.57787
-2.82855,-6.07346,-3.2081
-2.94695,-5.77463,-2.74409
-2.91114,-5.39835,-2.47704
-2.70309,-4.87576,-2.22449
-2.49066,-4.44528,-1.8454
-2.58231,-4.16098,-1.4868
-2.56986,-3.85938,-1.21742
-2.60992,-3.58612,-0.91687
-3.1989,-3.53192,-0.396805
-3.76964,-3.66165,0.00646973
-4.08981,-3.89029,0.1465
-4.40672,-4.07123,0.30864
-4.77506,-4.34021,0.405106
-4.99962,-4.66937,0.313217
-5.18455,-4.99582,0.198639
-5.50306,-5.28229,0.171326
-5.70047,-5.42737,0.203842
-5.70847,-5.55765,0.177155
-5.56572,-5.3782,0.215836
-5.48666,-5.01865,0.495285
-5.42662,-4.5639,0.88266
-5.22708,-3.96863,1.28345
-4.84875,-3.20477,1.6825
-4.34373,-2.34973,1.94875
-4.13753,-1.94943,2.13849
-4.23328,-1.79248,2.42989
-4.34581,-1.45816,2.87909
-4.26186,-1.00903,3.23285
-3.94534,-0.533936,3.46587
-3.62952,0.00219727,3.68102
-3.33522,0.521118,3.87079
-3.10944,0.882904,3.98502
-2.90045,1.31805,4.15186
-2.50896,1.91052,4.42775
-1.9942,2.48761,4.51942
-1.67903,2.86484,4.54066
-1.55861,3.09805,4.71257
-1.34096,3.45422,4.89943
-1.1279,3.85916,5.01807
-0.775742,4.3537,5.12112
-0.265778,5.00583,5.25945
0.268814,5.66501,5.39464
0.812286,6.10849,5.38213
1.17188,6.42978,5.3322
1.47449,6.86496,5.3598
1.63417,7.12607,5.39494
1.69347,7.0899,5.38427
1.78145,7.04782,5.29994
1.81416,7.02985,5.15617
1.68556,6.79797,5.04846
1.4669,6.513,4.95253
1.43077,6.40015,4.93729
1.54562,6.4715,4.97712
1.7271,6.73813,5.03948
1.80693,6.92938,5.10904
1.90039,7.01257,5.10604
2.05452,7.14937,5.17108
2.32712,7.42496,5.23745
2.86821,8.00816,5.14369
3.34648,8.45139,5.00098
3.71021,8.71075,4.97786
4.06853,9.16617,5.11868
4.34605,9.57654,5.31895
4.34196,9.81856,5.45807
4.19633,9.83542,5.51314
4.06143,9.67738,5.62675
3.87514,9.47346,5.61034
3.71609,9.27089,5.61075
3.48708,9.04019,5.58247
3.32924,8.84993,5.47023
3.19753,8.68306,5.48636
2.98799,8.41278,5.35899
2.92434,8.21547,5.20667
2.97746,8.05751,4.96014
3.18829,8.1288,4.84084
3.49925,8.44515,4.90111
3.71921,8.51871,4.80617
3.6686,8.28254,4.67386
3.69894,8.19874,4.43008
4.06544,8.29534,4.08454
4.41223,8.42846,3.92458
4.56912,8.53654,3.87396
4.70454,8.4954,3.77605
4.82639,8.39533,3.60458
4.78503,8.09953,3.31684
4.70638,7.83428,3.08698
4.68171,7.73105,2.95767
4.7628,7.61777,2.84799
4.83356,7.473,2.70128
4.90133,7.21747,2.43925
4.87052,7.05018,2.26794
4.77444,6.9439,2.22802
4.78809,6.91734,2.13091
4.93922,7.05439,2.06636
5.14415,7.11608,1.98801
5.13928,7.12897,1.96072
5.24517,7.26593,2.01068
5.373,7.34954,2.06512
5.22698,7.27934,2.1612
4.98785,7.21975,2.30611
4.68199,7.22196,2.5468
4.58759,7.32664,2.67566
4.65093,7.39453,2.6144
4.78041,7.27254,2.34383
5.01312,6.987,1.8879
5.19883,6.76965,1.50009
5.51115,6.85304,1.23521
5.88758,6.93105,0.973595
6.24166,6.7748,0.5485
6.42373,6.47974,0.0952835
6.15649,6.03229,-0.077919
5.69967,5.50854,-0.160065
5.21561,4.91377,-0.295525
4.70664,4.26021,-0.383606
4.16792,3.64076,-0.495216
3.56752,3.05415,-0.523125
3.17001,2.49896,-0.67807
2.86102,1.99615,-0.870285
2.47821,1.61714,-0.872055
2.37547,1.45844,-0.961708
2.50881,1.39612,-1.10194
2.55606,1.336,-1.20055
2.54285,1.35922,-1.17786
2.5822,1.4238,-1.18718
2.68468,1.42375,-1.30445
2.85332,1.42209,-1.43269
2.87862,1.39671,-1.45431
2.68005,1.34178,-1.24771
2.39453,1.3181,-1.01447
2.17805,1.41989,-0.746704
2.06094,1.57317,-0.488487
1.84579,1.50121,-0.275719
1.4976,1.25447,-0.178207
1.18905,0.924973,-0.278206
1.00016,0.680618,-0.338562
0.800865,0.538788,-0.383804
0.612587,0.31601,-0.500992
0.482727,0.0101166,-0.617569
0.35321,-0.299576,-0.605515
0.210571,-0.457535,-0.585144
0.0692902,-0.47261,-0.600082
-0.104729,-0.486221,-0.439621
-0.220345,-0.661072,-0.489861
-0.321915,-0.891129,-0.618568
-0.50602,-1.06946,-0.56926
-0.664917,-1.20645,-0.557007
-0.779381,-1.23785,-0.543457
-0.721817,-1.18474,-0.477257
-0.612183,-1.08897,-0.42141
-0.480995,-0.9534,-0.426811
-0.322807,-0.8396,-0.443924
-0.255829,-0.7612,-0.403885
-0.192612,-0.657059,-0.340744
-0.0576401,-0.521378,-0.41169
0.0967331,-0.40065,-0.497391
0.0707016,-0.316177,-0.411957
-0.0290833,-0.280807,-0.299156
0.130287,-0.0329285,-0.155182
0.635841,0.554947,0.00540161
1.08319,1.13663,0.132736
1.26992,1.51231,0.284332
1.38245,1.76051,0.372322
1.50035,1.80714,0.348961
1.55479,1.63461,0.175018
1.62467,1.5518,-0.0638351
1.81857,1.47214,-0.332855
1.83464,1.41769,-0.453354
1.53966,1.2171,-0.452126
1.32901,0.842453,-0.535278
1.32776,0.681259,-0.622581
1.16768,0.455048,-0.728996
0.981598,0.12355,-0.881073
0.928726,-0.0183411,-0.968834
0.809509,-0.100098,-0.961266
1.16867,0.25177,-0.954437
1.92935,1.08481,-0.926056
2.12917,1.42352,-0.812111
1.95197,1.20837,-0.797203
1.76253,0.916046,-0.88237
1.56189,0.714066,-0.815445
1.46724,0.64888,-0.711266
1.24649,0.453873,-0.722336
0.83902,0.0261688,-0.78476
0.714935,-0.280029,-0.948242
0.747971,-0.353424,-1.00494
0.702957,-0.407257,-1.04181
0.680344,-0.41304,-1.04192
0.5625,-0.174179,-0.780792
0.492111,-0.0307465,-0.624741
0.521194,-0.117477,-0.673363
0.356293,-0.169235,-0.604286
0.194,-0.166031,-0.335617
0.260147,-0.1185,-0.291176
0.369949,-0.147552,-0.489601
0.377029,-0.270706,-0.622803
0.0957947,-0.585739,-0.670868
-0.257767,-0.992111,-0.740318
-0.316238,-1.27715,-1.02587
-0.343369,-1.58797,-1.28904
-0.731262,-2.02626,-1.28613
-1.19096,-2.55426,-1.32644
-1.47141,-2.95914,-1.43095
-1.86342,-3.24792,-1.3802
-2.22302,-3.58952,-1.34343
-2.46971,-3.84756,-1.36292
-2.69885,-3.96759,-1.36022
-2.91811,-4.29022,-1.4187
-3.29883,-4.70695,-1.38029
-3.76257,-4.99004,-1.2425
-4.05748,-5.30962,-1.30616
-4.1454,-5.58185,-1.4716
-4.25064,-5.89053,-1.61853
-4.33792,-6.24055,-1.85358
-4.40137,-6.45924,-2.05581
-4.55186,-6.71649,-2.17825
-4.68818,-6.92116,-2.25476
-4.84509,-6.98756,-2.21426
-4.86398,-7.11589,-2.16809
-4.74613,-7.13975,-2.31269
-4.78044,-7.19836,-2.43629
-4.89624,-7.37087,-2.53305
-4.84902,-7.33999,-2.66841
-4.45005,-7.02911,-2.67862
-4.06291,-6.66959,-2.68239
-3.95425,-6.53812,-2.57579
-4.00493,-6.62135,-2.50737
-4.08226,-6.73633,-2.53749
-4.18457,-6.822,-2.48506
-4.20073,-6.76923,-2.43708
-4.03996,-6.57143,-2.4142
-4.14426,-6.51828,-2.28703
-4.4087,-6.66777,-2.27191
-4.69333,-6.93369,-2.26204
-4.9967,-7.02062,-2.04854
-4.98201,-6.92439,-2.02204
-4.9624,-6.85552,-2.02679
-4.96569,-6.7239,-1.92187
-4.74414,-6.65899,-2.03514
-4.33878,-6.61238,-2.36042
-3.84317,-6.54629,-2.64135
-3.56433,-6.5505,-2.93588
-3.44173,-6.6061,-3.22894
-3.38408,-6.75425,-3.33536
-3.46291,-6.94495,-3.42605
-3.45098,-7.09418,-3.57415
-3.31941,-7.01945,-3.66344
-3.18507,-6.97075,-3.80024
-3.0962,-7.00571,-3.95374
-3.09807,-6.91225,-3.8238
-3.21267,-6.94209,-3.66664
-3.56989,-7.27264,-3.669
-4.01803,-7.84116,-4.16066
-4.44175,-8.47016,-4.51534
-4.97884,-9.25885,-4.31252
-5.45081,-10.1967,-4.62023
-5.92945,-11.1927,-5.23943
-6.81073,-12.5893,-5.84212
-8.1039,-14.7157,-6.65384
-9.24897,-16.9792,-7.6459
-10.0825,-18.8296,-8.64793
-10.6906,-20.1197,-9.3133
-11.0312,-20.8812,-9.7879
-11.0377,-21.2261,-10.2035
-10.7574,-21.0385,-10.2615
-10.4885,-20.934,-10.3738
-10.3263,-20.7159,-10.3257
-10.1277,-19.9181,-9.80975
-9.64874,-18.9383,-9.25777
-9.15993,-18.217,-9.0688
-8.42287,-17.3257,-8.87796
-6.88528,-15.1968,-8.36716
-4.76773,-12.025,-6.92058
-2.20982,-7.99423,-3.97278
0.779663,-2.90915,-2.64656
4.30861,3.34628,-1.17259
8.78549,10.9463,2.09891
13.9776,19.632,5.50797
19.4051,29.4471,9.94487
24.5619,39.3373,14.6578
29.0409,47.6987,18.5778
33.5616,56.1938,22.625
38.9856,66.9476,27.9679
43.9799,76.6286,34.1615
47.7088,84.1004,37.8065
50.8323,91.5919,40.4692
53.1912,98.14,44.6913
55.2253,103.86,48.3907
57.2598,108.928,51.3733
58.334,111.7,53.0958
57.7581,112.324,54.1946
55.5901,110.64,54.7766
52.7215,107.208,54.2516
49.9637,103.659,53.9185
46.9848,99.5602,53.1528
43.6509,94.9271,51.286
40.4248,90.6836,50.0908
37.4476,86.7815,49.1126
34.2562,82.2001,47.7612
31.0244,77.2439,46.02
27.9841,72.6652,44.483
24.4705,67.8998,43.1731
20.6457,62.469,41.7557
16.3549,55.6577,38.6481
11.4116,47.6078,34.5486
7.34552,40.4716,32.5493
3.86261,32.9021,29.2068
-0.258667,23.2197,23.5107
-4.45551,13.5858,18.09
-8.41064,4.49622,12.8788
-12.4693,-5.13477,7.36713
-16.6957,-15.656,0.948242
-20.822,-26.6398,-5.75769
-24.685,-37.4033,-13.022
-28.4742,-47.7849,-20.9742
-32.4155,-57.7289,-26.1545
-36.0367,-66.371,-30.0962
-38.3809,-72.641,-34.2925
-39.9802,-77.619,-37.5375
-41.7737,-82.7063,-40.8602
-43.5767,-88.2377,-44.5316
-44.9143,-93.3971,-48.2961
-45.231,-95.8223,-50.3707
-44.5942,-95.2888,-50.5537
-43.2466,-92.9271,-49.7238
-41.3276,-89.3218,-47.9813
-39.3253,-85.1718,-45.7108
-37.3496,-80.7878,-43.3762
-35.1889,-76.4325,-41.2063
-33.0963,-72.3605,-39.2384
-31.344,-68.759,-37.3694
-29.9477,-65.8775,-35.8069
-28.8949,-63.5211,-34.6082
-27.8581,-61.1808,-33.3829
-26.687,-58.8438,-32.2177
-25.4321,-56.468,-31.1032
-24.2367,-54.1842,-29.8486
-23.2149,-52.0855,-28.6514
