Lead1,Lead2,Lead3
-14.0725,-15.1988,-0.910081
-28.756,-31.0518,-1.85758
-25.2885,-27.3035,-1.62632
-27.1596,-29.3204,-1.74596
-26.001,-28.0647,-1.66756
-26.7469,-28.8637,-1.70699
-26.2735,-28.3507,-1.67303
-26.5542,-28.653,-1.69342
-26.3756,-28.4639,-1.68596
-26.4437,-28.541,-1.68992
-26.3978,-28.4931,-1.68983
-26.3904,-28.4873,-1.69365
-26.3824,-28.481,-1.6936
-26.3676,-28.468,-1.69743
-26.3494,-28.4571,-1.70417
-26.3418,-28.451,-1.70471
-26.3431,-28.452,-1.70412
-26.3481,-28.4585,-1.7043
-26.3514,-28.4532,-1.7003
-26.3508,-28.4523,-1.69943
-26.3465,-28.4481,-1.69524
-26.3458,-28.444,-1.69492
-26.3481,-28.4448,-1.6942
-26.3467,-28.4479,-1.69834
-26.3431,-28.4426,-1.69711
-26.34,-28.4375,-1.69451
-26.3364,-28.4336,-1.69483
-26.3344,-28.4295,-1.6916
-26.329,-28.4237,-1.68983
-26.3205,-28.4145,-1.6896
-26.3174,-28.4058,-1.68445
-26.3084,-28.3986,-1.68482
-26.3003,-28.3879,-1.68514
-26.2974,-28.3836,-1.68036
-26.3003,-28.3848,-1.68008
-26.3035,-28.3865,-1.67808
-26.3051,-28.3816,-1.67166
-26.3037,-28.3734,-1.66606
-26.3006,-28.3705,-1.66442
-26.3037,-28.3654,-1.65896
-26.3066,-28.3652,-1.6545
-26.3109,-28.3618,-1.64653
-26.312,-28.3615,-1.64671
-26.3095,-28.3589,-1.64735
-26.301,-28.3516,-1.64826
-26.2954,-28.3429,-1.64366
-26.2923,-28.334,-1.63966
-26.2856,-28.3257,-1.63647
-26.2795,-28.3158,-1.63283
-26.2761,-28.3127,-1.63269
-26.2708,-28.3071,-1.63133
-26.2607,-28.2945,-1.62582
-26.2508,-28.2783,-1.62277
-26.2479,-28.2665,-1.61389
-26.243,-28.2537,-1.60729
-26.2387,-28.2447,-1.60114
-26.2345,-28.2333,-1.59359
-26.2316,-28.2239,-1.58944
-26.2251,-28.2145,-1.58758
-26.2183,-28.2038,-1.58161
-26.2103,-28.1973,-1.58485
-26.2045,-28.1922,-1.57952
-26.2004,-28.1866,-1.58102
-26.1995,-28.1837,-1.58198
-26.1971,-28.1775,-1.57651
-26.1982,-28.1746,-1.57192
-26.2006,-28.1755,-1.568
-26.1989,-28.1707,-1.56809
-26.1973,-28.1675,-1.56636
-26.1966,-28.1656,-1.56541
-26.2002,-28.1634,-1.56227
-26.2109,-28.1673,-1.55366
-26.2154,-28.1678,-1.54947
-26.2087,-28.1579,-1.54583
-26.2076,-28.1574,-1.54701
-26.2018,-28.154,-1.54956
-26.1957,-28.1462,-1.54779
-26.1926,-28.1404,-1.54456
-26.1959,-28.1404,-1.53955
-26.1955,-28.1392,-1.53946
-26.193,-28.1371,-1.53996
-26.191,-28.1395,-1.54565
-26.1926,-28.1453,-1.54893
-26.1939,-28.1462,-1.54952
-26.1906,-28.1448,-1.55079
-26.1906,-28.1528,-1.55626
-26.1957,-28.1617,-1.56281
-26.198,-28.1673,-1.5644
-26.1966,-28.1617,-1.56044
-26.198,-28.1574,-1.55735
-26.1971,-28.1569,-1.55512
-26.193,-28.153,-1.55657
-26.1888,-28.1494,-1.55494
-26.1776,-28.1361,-1.55475
-26.1755,-28.1329,-1.55657
-26.174,-28.1351,-1.55585
-26.1717,-28.1361,-1.55812
-26.1729,-28.1317,-1.55676
-26.1679,-28.1267,-1.55539
-26.1617,-28.1175,-1.55239
-26.1596,-28.1155,-1.55257
-26.1587,-28.1129,-1.55134
-26.1563,-28.11,-1.54997
-26.1552,-28.1039,-1.54506
-26.1529,-28.1039,-1.54651
-26.1534,-28.1034,-1.54811
-26.1516,-28.1017,-1.54802
-26.1493,-28.0998,-1.54633
-26.15,-28.0962,-1.54497
-26.1464,-28.0901,-1.54132
-26.1435,-28.0841,-1.53791
-26.1392,-28.0795,-1.53782
-26.1325,-28.0734,-1.53354
-26.1289,-28.0679,-1.53172
-26.1285,-28.0616,-1.53126
-26.1227,-28.055,-1.52767
-26.1215,-28.0502,-1.5233
-26.1207,-28.0456,-1.5207
-26.1117,-28.0359,-1.51952
-26.1036,-28.0299,-1.52225
-26.1099,-28.0263,-1.51301
-26.1119,-28.0154,-1.50035
-26.1045,-28.0033,-1.49534
-26.0949,-27.9934,-1.49712
-26.0902,-27.9876,-1.49389
-26.0864,-27.9839,-1.49407
-26.0814,-27.981,-1.49484
-26.0774,-27.9779,-1.49571
-26.0723,-27.9747,-1.4983
-26.0669,-27.9699,-1.49921
-26.0525,-27.9585,-1.50422
-26.0355,-27.9464,-1.50723
-26.0364,-27.945,-1.50554
-26.042,-27.9515,-1.50768
-26.0434,-27.9593,-1.5111
-26.0521,-27.9665,-1.51005
-26.0619,-27.9774,-1.51064
-26.0698,-27.9871,-1.51442
-26.0756,-27.9953,-1.51629
-26.0783,-28.0035,-1.52138
-26.0846,-28.0137,-1.52362
-26.0904,-28.0202,-1.52721
-26.094,-28.0238,-1.52589
-26.0978,-28.0299,-1.52967
-26.1063,-28.041,-1.53304
-26.1072,-28.0483,-1.53431
-26.1059,-28.0534,-1.54223
-26.1047,-28.056,-1.5466
-26.1043,-28.063,-1.55339
-26.1041,-28.0618,-1.55357
-26.1041,-28.0625,-1.55393
-26.1074,-28.0674,-1.55703
-26.1074,-28.0725,-1.56044
-26.1081,-28.0788,-1.56682
-26.1077,-28.0807,-1.57192
-26.1061,-28.0812,-1.57192
-26.0976,-28.0785,-1.57711
-26.092,-28.0744,-1.57774
-26.0906,-28.0768,-1.58239
-26.0924,-28.0894,-1.59172
-26.0976,-28.0988,-1.59573
-26.103,-28.1066,-1.6006
-26.1054,-28.1129,-1.60283
-26.1097,-28.1208,-1.60674
-26.1016,-28.1143,-1.6113
-26.094,-28.1056,-1.60947
-26.0987,-28.1095,-1.60679
-26.1052,-28.116,-1.60711
-26.1065,-28.1138,-1.60438
-26.0974,-28.1073,-1.60469
-26.092,-28.1,-1.60551
-26.0956,-28.1015,-1.60187
-26.1043,-28.1143,-1.60683
-26.109,-28.1254,-1.61048
-26.1117,-28.1342,-1.62459
-26.1186,-28.1487,-1.62896
-26.1296,-28.1697,-1.6352
-26.1339,-28.1869,-1.6474
-26.1359,-28.2033,-1.66369
-26.1453,-28.2234,-1.67403
-26.1505,-28.2399,-1.68423
-26.1561,-28.2566,-1.69151
-26.1699,-28.2708,-1.6997
-26.1773,-28.2836,-1.70239
-26.1856,-28.2957,-1.71013
-26.1935,-28.3066,-1.71113
-26.1932,-28.3088,-1.71409
-26.1928,-28.3156,-1.71741
-26.1941,-28.3236,-1.72278
-26.1948,-28.3299,-1.73248
-26.1876,-28.3236,-1.73093
-26.1843,-28.3178,-1.72866
-26.1881,-28.3262,-1.73412
-26.1885,-28.3286,-1.7359
-26.1811,-28.3226,-1.74054
-26.1731,-28.317,-1.74018
-26.1773,-28.3248,-1.74081
-26.1841,-28.3296,-1.7415
-26.1899,-28.3376,-1.742
-26.1948,-28.3436,-1.74546
-26.2013,-28.3519,-1.74814
-26.2089,-28.3628,-1.75015
-26.2179,-28.3748,-1.75324
-26.2266,-28.393,-1.75893
-26.2403,-28.4104,-1.7648
-26.2546,-28.4319,-1.78188
-26.2791,-28.4612,-1.77655
-26.3039,-28.4934,-1.78788
-26.3284,-28.528,-1.79307
-26.353,-28.5616,-1.8045
-26.3716,-28.5957,-1.81975
-26.3855,-28.6308,-1.84302
-26.4052,-28.6743,-1.86692
-26.426,-28.7116,-1.88385
-26.4415,-28.7401,-1.89464
-26.4597,-28.7757,-1.91135
-26.4724,-28.7958,-1.92077
-26.4863,-28.8219,-1.93124
-26.5036,-28.8463,-1.93798
-26.5181,-28.8591,-1.93502
-26.5298,-28.8708,-1.93702
-26.5354,-28.8831,-1.94226
-26.5287,-28.8925,-1.96006
-26.5128,-28.878,-1.95792
-26.4861,-28.8514,-1.96898
-26.4433,-28.7967,-1.91057
-26.383,-28.7203,-1.91991
-26.3145,-28.6255,-1.91221
-26.2275,-28.496,-1.86259
-26.1339,-28.3545,-1.81798
-26.0348,-28.1772,-1.73831
-25.9333,-27.9946,-1.65523
-25.8348,-27.8238,-1.58835
-25.7294,-27.6479,-1.50718
-25.5905,-27.3944,-1.41194
-25.4778,-27.1876,-1.27719
-25.3683,-26.9892,-1.18268
-25.2621,-26.7713,-1.11617
-25.1525,-26.5514,-0.988656
-25.0411,-26.3361,-0.892281
-24.932,-26.1215,-0.783568
-24.8511,-25.9643,-0.71346
-24.7938,-25.8307,-0.632928
-24.7696,-25.7366,-0.563639
-24.757,-25.6783,-0.519526
-24.7404,-25.6184,-0.465215
-24.7449,-25.5799,-0.411724
-24.7543,-25.5494,-0.395608
-24.7579,-25.5068,-0.343392
-24.7611,-25.4638,-0.301509
-24.768,-25.435,-0.262859
-24.7736,-25.4093,-0.235726
-24.7776,-25.383,-0.200809
-24.7974,-25.3658,-0.165527
-24.8328,-25.3665,-0.130701
-24.8726,-25.3922,-0.114084
-24.9222,-25.4471,-0.1597
-24.9551,-25.4744,-0.116224
-24.9838,-25.5356,-0.148592
-25.0317,-25.6428,-0.208184
-25.0821,-25.7369,-0.249793
-25.1399,-25.8395,-0.29468
-25.2027,-25.9628,-0.35755
-25.2742,-26.1169,-0.435488
-25.345,-26.2797,-0.533502
-25.4001,-26.4299,-0.618815
-25.4765,-26.6002,-0.757346
-25.5598,-26.7778,-0.827454
-25.638,-26.9396,-0.892372
-25.7017,-27.0724,-0.970765
-25.7626,-27.2055,-1.03746
-25.8229,-27.3431,-1.11631
-25.8832,-27.4861,-1.19807
-25.9459,-27.6436,-1.2954
-25.9974,-27.7568,-1.35854
-26.0265,-27.8206,-1.39027
-26.0411,-27.8511,-1.40862
-26.0566,-27.8753,-1.41804
-26.0662,-27.8857,-1.41713
-26.0604,-27.8799,-1.41613
-26.0528,-27.8693,-1.41358
-26.0463,-27.8678,-1.41672
-26.0478,-27.8714,-1.41868
-26.0575,-27.8867,-1.42656
-26.0628,-27.9022,-1.43266
-26.0725,-27.9167,-1.43958
-26.0857,-27.9394,-1.44946
-26.0951,-27.9585,-1.46102
-26.1045,-27.9745,-1.4658
-26.1137,-27.988,-1.47194
-26.1164,-27.9992,-1.47668
-26.1249,-28.0096,-1.48146
-26.1316,-28.0207,-1.48542
-26.1363,-28.0306,-1.49006
-26.1464,-28.042,-1.49207
-26.1536,-28.0541,-1.49657
-26.1585,-28.0628,-1.4993
-26.1626,-28.0696,-1.50568
-26.1688,-28.0756,-1.50408
-26.178,-28.0923,-1.50968
-26.1906,-28.1075,-1.51137
-26.1977,-28.1163,-1.51779
-26.2042,-28.1322,-1.52585
-26.2121,-28.1484,-1.53053
-26.2204,-28.1581,-1.53022
-26.2349,-28.1724,-1.53308
-26.2477,-28.1898,-1.53714
-26.2638,-28.2116,-1.54806
-26.2788,-28.2328,-1.55084
-26.2945,-28.2529,-1.55134
-26.3095,-28.2716,-1.56108
-26.3254,-28.2953,-1.56591
-26.3331,-28.3103,-1.57269
-26.3405,-28.3233,-1.58061
-26.3557,-28.3463,-1.58507
-26.3633,-28.3572,-1.58972
-26.3631,-28.364,-1.59682
-26.3647,-28.3765,-1.61202
-26.3633,-28.3869,-1.62186
-26.3626,-28.3957,-1.62577
-26.3658,-28.407,-1.63866
-26.3664,-28.4189,-1.64963
-26.3608,-28.4278,-1.66037
-26.3568,-28.4353,-1.67512
-26.3532,-28.4435,-1.687
-26.3514,-28.4539,-1.69925
-26.3517,-28.4644,-1.70389
-26.3465,-28.4634,-1.71391
-26.3414,-28.4656,-1.72461
-26.3373,-28.4726,-1.72907
-26.3391,-28.4827,-1.74081
-26.3313,-28.4842,-1.74887
-26.3216,-28.4806,-1.75474
-26.3169,-28.4847,-1.76207
-26.3187,-28.4924,-1.76904
-26.3301,-28.5103,-1.77664
-26.336,-28.5219,-1.7832
-26.3422,-28.536,-1.79066
-26.349,-28.5514,-1.79958
-26.3577,-28.5633,-1.80286
-26.3651,-28.5783,-1.81015
-26.3754,-28.5935,-1.81338
-26.3902,-28.6027,-1.81037
-26.396,-28.6131,-1.81192
-26.4034,-28.6264,-1.81761
-26.3998,-28.6264,-1.82435
-26.3994,-28.6301,-1.8249
-26.4066,-28.6383,-1.82672
-26.4182,-28.6504,-1.82745
-26.4292,-28.6651,-1.82827
-26.444,-28.6809,-1.83282
-26.459,-28.7,-1.835
-26.474,-28.7157,-1.83783
-26.4957,-28.7338,-1.83127
-26.5139,-28.7469,-1.82972
-26.5204,-28.751,-1.8259
-26.5242,-28.7515,-1.82298
-26.5347,-28.7583,-1.81921
-26.5506,-28.7759,-1.82198
-26.5672,-28.7948,-1.82389
-26.5854,-28.8129,-1.82353
-26.6082,-28.8359,-1.82353
-26.6217,-28.8495,-1.82499
-26.6373,-28.8657,-1.82353
-26.6546,-28.8853,-1.82972
-26.6736,-28.9085,-1.83223
-26.6927,-28.9317,-1.83559
-26.7066,-28.9503,-1.84115
-26.7198,-28.9694,-1.8472
-26.7359,-28.9898,-1.85385
-26.7554,-29.0156,-1.85594
-26.7655,-29.0326,-1.86241
-26.7715,-29.0449,-1.86951
-26.7789,-29.056,-1.87233
-26.7879,-29.0698,-1.87734
-26.7895,-29.0788,-1.88362
-26.791,-29.0875,-1.89136
-26.7917,-29.0935,-1.89714
-26.7866,-29.0993,-1.90912
-26.7859,-29.1052,-1.92095
-26.7794,-29.1042,-1.92013
-26.7771,-29.109,-1.93056
-26.7745,-29.1158,-1.93607
-26.7736,-29.1221,-1.94576
-26.7722,-29.1293,-1.95273
-26.7673,-29.1342,-1.96447
-26.7675,-29.1405,-1.97135
-26.7606,-29.1463,-1.98118
-26.7574,-29.1499,-1.98664
-26.7525,-29.1526,-2.00426
-26.7433,-29.1501,-2.0034
-26.735,-29.1497,-2.01018
-26.7265,-29.1482,-2.01724
-26.7162,-29.1434,-2.02452
-26.7081,-29.1456,-2.03203
-26.6992,-29.1489,-2.04505
-26.6886,-29.1509,-2.05652
-26.6781,-29.1509,-2.06868
-26.6718,-29.1591,-2.08061
-26.6644,-29.1632,-2.10159
-26.655,-29.1659,-2.11011
-26.6485,-29.1748,-2.1219
-26.6367,-29.1872,-2.14543
-26.6279,-29.191,-2.15845
-26.625,-29.1978,-2.16952
-26.6239,-29.2104,-2.1839
-26.6203,-29.2164,-2.19437
-26.6131,-29.2203,-2.20389
-26.6064,-29.2244,-2.21327
-26.5972,-29.2256,-2.22592
-26.5919,-29.2353,-2.24167
-26.586,-29.2375,-2.24723
-26.5795,-29.2426,-2.25906
-26.571,-29.243,-2.26708
-26.5625,-29.2413,-2.27454
-26.5468,-29.2338,-2.28078
-26.5275,-29.2159,-2.28743
-26.5154,-29.2068,-2.28947
-26.5121,-29.2084,-2.29371
-26.5078,-29.2039,-2.29507
-26.5022,-29.1988,-2.29899
-26.4995,-29.2024,-2.29794
-26.4951,-29.2036,-2.30422
-26.4939,-29.2097,-2.30932
-26.4897,-29.2121,-2.32011
-26.4836,-29.2145,-2.32844
-26.4783,-29.2203,-2.33823
-26.4765,-29.2263,-2.34615
-26.4769,-29.2365,-2.35635
-26.4724,-29.244,-2.36577
-26.4662,-29.2503,-2.37857
-26.4684,-29.2566,-2.38521
-26.4729,-29.2626,-2.38539
-26.4675,-29.2634,-2.39118
-26.4621,-29.2559,-2.38899
-26.4525,-29.2469,-2.3899
-26.4469,-29.2406,-2.39108
-26.4437,-29.2377,-2.38945
-26.435,-29.2261,-2.38822
-26.4135,-29.2012,-2.38407
-26.396,-29.1797,-2.38193
-26.3911,-29.1739,-2.37811
-26.388,-29.1768,-2.38385
-26.3875,-29.1731,-2.3853
-26.3819,-29.1705,-2.38289
-26.3815,-29.1719,-2.38576
-26.3873,-29.1785,-2.3858
-26.3875,-29.1768,-2.38544
-26.3855,-29.1792,-2.38999
-26.3812,-29.1765,-2.3925
-26.3797,-29.1751,-2.38972
-26.3808,-29.178,-2.38972
-26.3806,-29.1736,-2.39004
-26.3821,-29.1702,-2.38521
-26.379,-29.1606,-2.3792
-26.3759,-29.1448,-2.36423
-26.3718,-29.1286,-2.35116
-26.3638,-29.1068,-2.34001
-26.3514,-29.0882,-2.33254
-26.3474,-29.0764,-2.3258
-26.3416,-29.066,-2.3207
-26.3378,-29.0575,-2.31219
-26.3322,-29.0452,-2.31087
-26.3178,-29.0287,-2.306
-26.3046,-29.0161,-2.30841
-26.3006,-29.0098,-2.30554
-26.3055,-29.0084,-2.29935
-26.3138,-29.0084,-2.29089
-26.3133,-29.0009,-2.28101
-26.3169,-28.998,-2.27272
-26.3201,-28.99,-2.26753
-26.3172,-28.9796,-2.25187
-26.3142,-28.9675,-2.24923
-26.3118,-28.9557,-2.24049
-26.3075,-28.944,-2.23179
-26.3048,-28.9312,-2.2231
-26.2988,-28.9153,-2.21267
-26.295,-28.9051,-2.20489
-26.2882,-28.8884,-2.19524
-26.2795,-28.8722,-2.18668
-26.2735,-28.8536,-2.1748
-26.2679,-28.8325,-2.15654
-26.2611,-28.8173,-2.15122
-26.2562,-28.8052,-2.14466
-26.249,-28.7921,-2.13587
-26.2419,-28.7783,-2.13405
-26.2414,-28.7711,-2.12886
-26.2347,-28.7539,-2.11566
-26.2266,-28.7319,-2.10005
-26.2237,-28.7176,-2.09121
-26.2186,-28.7067,-2.08589
-26.2141,-28.6932,-2.0715
-26.2112,-28.6792,-2.06071
-26.2116,-28.6688,-2.05461
-26.2127,-28.6605,-2.04478
-26.215,-28.6516,-2.03777
-26.2132,-28.6441,-2.02748
-26.2132,-28.6363,-2.01933
-26.2098,-28.6267,-2.01155
-26.2101,-28.6184,-2.00385
-26.2067,-28.6093,-1.99753
-26.2074,-28.6005,-1.98733
-26.208,-28.5901,-1.97344
-26.2058,-28.5826,-1.96989
-26.2031,-28.573,-1.96625
-26.2018,-28.5638,-1.95969
-26.2027,-28.5563,-1.94731
-26.2067,-28.5543,-1.94394
-26.2116,-28.5551,-1.93834
-26.2163,-28.5502,-1.93001
-26.2163,-28.5437,-1.92182
-26.219,-28.543,-1.91886
-26.2224,-28.542,-1.91349
-26.2266,-28.5435,-1.91176
-26.2325,-28.5403,-1.90352
-26.2401,-28.5406,-1.89683
-26.2466,-28.543,-1.89341
-26.2515,-28.5432,-1.88786
-26.2582,-28.5476,-1.88476
-26.2654,-28.5478,-1.87693
-26.2661,-28.543,-1.87484
-26.2658,-28.5362,-1.87019
-26.2634,-28.5345,-1.86314
-26.2582,-28.5251,-1.86355
-26.2564,-28.5173,-1.8579
-26.2513,-28.5052,-1.84775
-26.2497,-28.4888,-1.83605
-26.2457,-28.4786,-1.82681
-26.2443,-28.4673,-1.81834
-26.2452,-28.4627,-1.81292
-26.2481,-28.4673,-1.81429
-26.2537,-28.466,-1.80896
-26.2448,-28.4578,-1.81069
-26.2298,-28.452,-1.81843
-26.2293,-28.4542,-1.82198
-26.2291,-28.4619,-1.82954
-26.2318,-28.4714,-1.83728
-26.2367,-28.4777,-1.83696
-26.2488,-28.4895,-1.83637
-26.254,-28.4975,-1.83965
-26.2625,-28.5064,-1.83974
-26.2641,-28.5113,-1.84579
-26.2596,-28.5067,-1.84333
-26.2582,-28.5047,-1.8401
-26.2593,-28.4997,-1.83605
-26.2564,-28.4958,-1.83509
-26.2475,-28.4895,-1.83723
-26.2354,-28.4801,-1.83673
-26.2275,-28.4665,-1.83437
-26.2262,-28.4612,-1.83191
-26.2224,-28.4564,-1.82886
-26.2174,-28.4438,-1.82162
-26.2136,-28.4353,-1.81707
-26.2134,-28.436,-1.81998
-26.2201,-28.4409,-1.81588
-26.2298,-28.4448,-1.80892
-26.2416,-28.4489,-1.80241
-26.2515,-28.4556,-1.79995
-26.2596,-28.4677,-1.80418
-26.2587,-28.4718,-1.81138
-26.2549,-28.4764,-1.81839
-26.254,-28.4793,-1.82148
-26.2477,-28.4755,-1.82153
-26.2446,-28.474,-1.82408
-26.2439,-28.4728,-1.82617
-26.2425,-28.4755,-1.82877
-26.241,-28.474,-1.83027
-26.2401,-28.4726,-1.82872
-26.2407,-28.4704,-1.82613
-26.241,-28.4704,-1.82462
-26.2421,-28.4699,-1.82244
-26.2378,-28.4648,-1.82294
-26.2336,-28.4576,-1.82207
-26.2197,-28.4375,-1.81215
-26.2168,-28.4281,-1.80737
-26.2179,-28.4247,-1.80154
-26.2195,-28.4198,-1.79717
-26.2219,-28.4191,-1.79198
-26.2233,-28.4169,-1.78788
-26.2248,-28.4148,-1.78634
-26.2179,-28.4077,-1.78629
-26.2118,-28.3949,-1.77805
-26.2062,-28.3845,-1.77527
-26.2085,-28.3879,-1.77659
-26.2143,-28.3911,-1.7725
-26.2239,-28.3973,-1.76922
-26.2423,-28.4136,-1.76813
-26.2544,-28.423,-1.76544
-26.2645,-28.4269,-1.7603
-26.2679,-28.43,-1.76107
-26.2712,-28.4339,-1.75948
-26.2853,-28.446,-1.75971
-26.293,-28.4578,-1.76221
-26.2992,-28.4641,-1.7618
-26.301,-28.4658,-1.76166
-26.3006,-28.4653,-1.76084
-26.2979,-28.4593,-1.75716
-26.2927,-28.4569,-1.75961
-26.293,-28.4547,-1.75775
-26.2903,-28.451,-1.75766
-26.2865,-28.4503,-1.75802
-26.286,-28.4469,-1.75752
-26.2826,-28.4368,-1.75174
-26.2661,-28.4244,-1.75301
-26.2551,-28.4114,-1.75133
-26.2477,-28.3988,-1.74664
-26.2421,-28.3898,-1.74231
-26.2372,-28.3838,-1.74095
-26.2322,-28.3787,-1.74272
-26.2327,-28.3785,-1.74309
-26.2262,-28.3722,-1.74241
-26.2132,-28.363,-1.7465
-26.2049,-28.3615,-1.75238
-26.1984,-28.3598,-1.75656
-26.1874,-28.3545,-1.76144
-26.1749,-28.3497,-1.76977
-26.1657,-28.3432,-1.77364
-26.1628,-28.3371,-1.77095
-26.1603,-28.3318,-1.76968
-26.1578,-28.3294,-1.76681
-26.1536,-28.3265,-1.76763
-26.1552,-28.3255,-1.76376
-26.1596,-28.3214,-1.75816
-26.1643,-28.319,-1.75192
-26.1648,-28.3132,-1.74309
-26.159,-28.3013,-1.73594
-26.1527,-28.2914,-1.73517
-26.1536,-28.2861,-1.72825
-26.1576,-28.2791,-1.7186
-26.1601,-28.274,-1.70949
-26.1664,-28.2742,-1.70558
-26.1684,-28.274,-1.69984
-26.1717,-28.2732,-1.69524
-26.1798,-28.2749,-1.69338
-26.1836,-28.274,-1.68555
-26.182,-28.2691,-1.6753
-26.1847,-28.2626,-1.67416
-26.1834,-28.2546,-1.66734
-26.1879,-28.2524,-1.66301
-26.1901,-28.2539,-1.65855
-26.1964,-28.2488,-1.64639
-26.2065,-28.2474,-1.63556
-26.2157,-28.25,-1.63042
-26.2186,-28.2481,-1.62527
-26.2206,-28.244,-1.62181
-26.2264,-28.2447,-1.6163
-26.2273,-28.2459,-1.61553
-26.2273,-28.244,-1.61307
-26.2271,-28.244,-1.61102
-26.2311,-28.2466,-1.61148
-26.2356,-28.2495,-1.61243
-26.2374,-28.2566,-1.61521
-26.2434,-28.2604,-1.61334
-26.239,-28.2546,-1.61075
-26.2338,-28.2457,-1.60679
-26.2336,-28.2418,-1.60146
-26.2322,-28.2396,-1.60082
-26.2327,-28.2396,-1.60214
-26.2351,-28.2401,-1.60096
-26.2369,-28.2304,-1.5909
-26.2396,-28.2292,-1.5853
-26.2439,-28.2331,-1.58494
-26.2486,-28.2319,-1.57979
-26.245,-28.2241,-1.57633
-26.2472,-28.2183,-1.56714
-26.2522,-28.2176,-1.5619
-26.2589,-28.2128,-1.54952
-26.2703,-28.2179,-1.54333
-26.2775,-28.2227,-1.54128
-26.2793,-28.2237,-1.54032
-26.2831,-28.2246,-1.53946
-26.2876,-28.2314,-1.54142
-26.293,-28.2372,-1.53969
-26.2977,-28.242,-1.5416
-26.2918,-28.2377,-1.54228
-26.288,-28.2336,-1.54369
-26.2945,-28.2377,-1.53891
-26.2988,-28.2384,-1.53582
-26.3068,-28.2459,-1.53331
-26.3136,-28.2524,-1.53582
-26.3151,-28.2527,-1.53504
-26.3158,-28.2529,-1.53181
-26.316,-28.2503,-1.52871
-26.3133,-28.2474,-1.52908
-26.3122,-28.2474,-1.53181
-26.3064,-28.2416,-1.53185
-26.2956,-28.2341,-1.53322
-26.2912,-28.2249,-1.53158
-26.2876,-28.2203,-1.53058
-26.2867,-28.2186,-1.52967
-26.2835,-28.2159,-1.52753
-26.2766,-28.2128,-1.53267
-26.2681,-28.2111,-1.53609
-26.2609,-28.1983,-1.53381
-26.2555,-28.1915,-1.53081
-26.2571,-28.1937,-1.53003
-26.2598,-28.1929,-1.53053
-26.2567,-28.1898,-1.53022
-26.2582,-28.1941,-1.53131
-26.256,-28.1975,-1.53786
-26.2497,-28.2004,-1.54547
-26.241,-28.1941,-1.55093
-26.2316,-28.1912,-1.55566
-26.2125,-28.1775,-1.56008
-26.2013,-28.1678,-1.56363
-26.1953,-28.1625,-1.56308
-26.1832,-28.1516,-1.56809
-26.1767,-28.1525,-1.57365
-26.1699,-28.1426,-1.56891
-26.1536,-28.1269,-1.56932
-26.1449,-28.1206,-1.5711
-26.1462,-28.1233,-1.57224
-26.1455,-28.1257,-1.5757
-26.1419,-28.1279,-1.58166
-26.1422,-28.1283,-1.58211
-26.144,-28.1312,-1.58325
-26.1424,-28.1283,-1.58289
-26.139,-28.1259,-1.58312
-26.1321,-28.1165,-1.58011
-26.124,-28.1073,-1.57993
-26.1195,-28.1022,-1.57915
-26.118,-28.1025,-1.5812
-26.1146,-28.1013,-1.58098
-26.1077,-28.0901,-1.58043
-26.0991,-28.0819,-1.58052
-26.0873,-28.071,-1.58002
-26.0738,-28.0628,-1.58526
-26.0637,-28.0534,-1.58758
-26.0619,-28.0495,-1.58307
-26.0622,-28.0461,-1.58184
-26.0555,-28.0393,-1.58239
-26.0501,-28.0357,-1.58339
-26.0474,-28.0367,-1.58721
-26.0478,-28.0417,-1.58953
-26.0436,-28.0413,-1.59422
-26.0431,-28.0398,-1.59468
-26.042,-28.0413,-1.59673
-26.0371,-28.0388,-1.59873
-26.0348,-28.0381,-1.60092
-26.0355,-28.0439,-1.60588
-26.036,-28.0478,-1.60692
-26.0362,-28.0495,-1.60884
-26.0324,-28.0468,-1.61111
-26.0297,-28.0492,-1.61412
-26.0265,-28.0524,-1.62208
-26.0277,-28.0536,-1.62063
-26.0339,-28.0577,-1.61954
-26.0346,-28.0625,-1.62645
-26.0357,-28.0662,-1.62987
-26.0328,-28.0664,-1.62969
-26.0322,-28.072,-1.6377
-26.0357,-28.0841,-1.64389
-26.0427,-28.0942,-1.64762
-26.0434,-28.0947,-1.64776
-26.0393,-28.0942,-1.65245
-26.038,-28.0998,-1.65864
-26.0373,-28.1054,-1.66297
-26.0434,-28.1141,-1.66711
-26.0496,-28.1247,-1.67093
-26.0575,-28.1329,-1.66993
-26.0667,-28.1436,-1.67294
-26.0763,-28.1576,-1.67767
-26.0853,-28.1673,-1.67972
-26.0866,-28.1746,-1.6825
-26.0837,-28.175,-1.68682
-26.0729,-28.1656,-1.68696
-26.0749,-28.1656,-1.68591
-26.0749,-28.1671,-1.69183
-26.0752,-28.175,-1.69784
-26.0821,-28.184,-1.69802
-26.0929,-28.1987,-1.70248
-26.1052,-28.2171,-1.70876
-26.1155,-28.2326,-1.71445
-26.1298,-28.2524,-1.71932
-26.1446,-28.2749,-1.72606
-26.154,-28.289,-1.73084
-26.1717,-28.3105,-1.73845
-26.1836,-28.3291,-1.74231
-26.1962,-28.3465,-1.75015
-26.2105,-28.3637,-1.75301
-26.2206,-28.3802,-1.7562
-26.2271,-28.3925,-1.76107
-26.2369,-28.4082,-1.76972
-26.2414,-28.4191,-1.77455
-26.2459,-28.4271,-1.77714
-26.2618,-28.4324,-1.76795
-26.2679,-28.4419,-1.76981
-26.2694,-28.4491,-1.77578
-26.2681,-28.4549,-1.78893
-26.2676,-28.467,-1.79917
-26.2701,-28.4827,-1.80741
-26.2768,-28.5004,-1.82094
-26.2806,-28.5125,-1.8274
-26.2806,-28.5251,-1.84047
-26.2815,-28.5425,-1.85644
-26.2849,-28.5577,-1.86723
-26.2932,-28.572,-1.87406
-26.3021,-28.5868,-1.87925
-26.3109,-28.6032,-1.88945
-26.3165,-28.6153,-1.89892
-26.3205,-28.6272,-1.90047
-26.3268,-28.6392,-1.90994
-26.331,-28.6487,-1.91349
-26.3324,-28.6567,-1.92
-26.3369,-28.6649,-1.92491
-26.3396,-28.6726,-1.93138
-26.3414,-28.6816,-1.93629
-26.3402,-28.684,-1.93994
-26.3366,-28.6857,-1.94499
-26.3366,-28.6934,-1.95428
-26.3449,-28.7029,-1.95546
-26.3485,-28.7106,-1.95564
-26.3528,-28.7181,-1.96092
-26.3577,-28.7251,-1.96343
-26.3611,-28.7326,-1.96543
-26.3689,-28.7413,-1.96834
-26.3725,-28.7503,-1.97226
-26.3808,-28.7595,-1.97581
-26.383,-28.7609,-1.97399
-26.3824,-28.7621,-1.97322
-26.3886,-28.7655,-1.97262
-26.3953,-28.773,-1.97308
-26.4036,-28.7832,-1.97549
-26.4066,-28.7883,-1.97699
-26.4124,-28.7943,-1.97995
-26.4151,-28.8008,-1.98077
-26.4184,-28.8071,-1.98428
-26.4227,-28.8144,-1.98901
-26.4234,-28.8173,-1.98819
-26.4265,-28.819,-1.98592
-26.4278,-28.8192,-1.98783
-26.4314,-28.8236,-1.98651
-26.4305,-28.8221,-1.98614
-26.4247,-28.8134,-1.98478
-26.4236,-28.8095,-1.98159
-26.4294,-28.8154,-1.98182
-26.4236,-28.8064,-1.97936
-26.4169,-28.797,-1.9749
-26.4187,-28.796,-1.97331
-26.424,-28.7991,-1.96866
-26.4245,-28.7919,-1.96088
-26.4202,-28.7783,-1.95496
-26.426,-28.7827,-1.95196
-26.433,-28.7822,-1.94531
-26.4373,-28.7781,-1.9373
-26.4458,-28.7895,-1.94026
-26.4547,-28.7933,-1.93584
-26.4639,-28.8006,-1.93138
-26.4644,-28.8057,-1.93365
-26.4691,-28.8151,-1.94148
-26.4722,-28.8209,-1.94217
-26.4718,-28.8197,-1.94326
-26.4688,-28.8187,-1.94622
-26.4644,-28.8212,-1.9515
-26.4635,-28.8231,-1.9556
-26.4572,-28.8144,-1.95341
-26.4567,-28.81,-1.9479
-26.4525,-28.8004,-1.94463
-26.4509,-28.7996,-1.94103
-26.4547,-28.7965,-1.93752
-26.4534,-28.7933,-1.93115
-26.4462,-28.781,-1.93092
-26.439,-28.7699,-1.92651
-26.435,-28.7597,-1.91968
-26.431,-28.7525,-1.9144
-26.4319,-28.7481,-1.91121
-26.4348,-28.7457,-1.90807
-26.4361,-28.744,-1.9032
-26.4381,-28.7411,-1.89887
-26.4446,-28.7387,-1.88717
-26.4471,-28.7307,-1.87675
-26.4413,-28.722,-1.87593
-26.4464,-28.72,-1.87083
-26.45,-28.7167,-1.86418
-26.4538,-28.7106,-1.85353
-26.4554,-28.706,-1.84789
-26.4558,-28.7055,-1.84315
-26.4464,-28.6925,-1.84074
-26.4368,-28.6809,-1.83919
-26.4292,-28.6719,-1.83842
-26.4305,-28.6685,-1.83327
-26.4375,-28.6697,-1.82836
-26.4355,-28.6615,-1.8243
-26.4254,-28.6509,-1.82235
-26.4202,-28.6506,-1.82699
-26.4195,-28.6516,-1.82663
-26.4128,-28.6436,-1.82685
-26.4052,-28.6356,-1.8264
-26.4003,-28.6308,-1.82708
-26.3978,-28.6298,-1.82786
-26.3949,-28.6317,-1.83122
-26.3913,-28.6262,-1.83182
-26.3931,-28.6255,-1.8299
-26.3877,-28.6218,-1.82977
-26.3866,-28.6163,-1.82562
-26.3817,-28.6107,-1.82458
-26.3734,-28.6027,-1.82285
-26.3691,-28.5955,-1.82148
-26.362,-28.5872,-1.82062
-26.3575,-28.5793,-1.81884
-26.3492,-28.5713,-1.81702
-26.3447,-28.563,-1.81279
-26.3355,-28.5514,-1.81124
-26.3304,-28.5435,-1.80823
-26.323,-28.5316,-1.80491
-26.3138,-28.5197,-1.80245
-26.3057,-28.5072,-1.7969
-26.2988,-28.4985,-1.79508
-26.2943,-28.491,-1.79057
-26.286,-28.4806,-1.78925
-26.2809,-28.4731,-1.78729
-26.2761,-28.4629,-1.7816
-26.2676,-28.4523,-1.77983
-26.258,-28.4399,-1.77705
-26.2569,-28.4358,-1.77641
-26.2544,-28.4334,-1.77459
-26.2549,-28.4295,-1.77095
-26.2571,-28.4295,-1.7674
-26.2591,-28.4285,-1.76439
-26.2616,-28.4295,-1.76499
-26.2611,-28.429,-1.76412
-26.2569,-28.4242,-1.76153
-26.2535,-28.4186,-1.75807
-26.2461,-28.409,-1.75665
-26.2349,-28.3973,-1.75697
-26.2322,-28.3942,-1.75647
-26.2237,-28.3807,-1.75347
-26.2098,-28.3654,-1.75128
-26.1928,-28.3451,-1.74828
-26.1787,-28.3325,-1.74942
-26.1755,-28.3335,-1.75101
-26.1738,-28.3231,-1.74477
-26.1688,-28.3136,-1.74027
-26.1652,-28.312,-1.74277
-26.1726,-28.3192,-1.74136
-26.1823,-28.3156,-1.72861
-26.1953,-28.3153,-1.71668
-26.1968,-28.3228,-1.72383
-26.2038,-28.3361,-1.72606
-26.2098,-28.3412,-1.72738
-26.2105,-28.3449,-1.72825
-26.2103,-28.3519,-1.7389
-26.2065,-28.3553,-1.7491
-26.2058,-28.3562,-1.74482
-26.2049,-28.3611,-1.74983
-26.1986,-28.3623,-1.75879
-26.1843,-28.3475,-1.76039
-26.1776,-28.3424,-1.75961
-26.1755,-28.3398,-1.75902
-26.1753,-28.3395,-1.7608
-26.1773,-28.3453,-1.76489
-26.1693,-28.3388,-1.76558
-26.1608,-28.3311,-1.76453
-26.1657,-28.3311,-1.76244
-26.1659,-28.3192,-1.74896
-26.1623,-28.3146,-1.74655
-26.1657,-28.3146,-1.74577
-26.1641,-28.318,-1.74983
-26.1643,-28.3204,-1.75087
-26.1583,-28.3151,-1.75347
-26.1572,-28.3163,-1.7536
-26.1547,-28.3144,-1.75584
-26.1442,-28.3088,-1.75975
-26.1325,-28.2982,-1.76357
-26.1283,-28.2974,-1.7643
-26.1274,-28.2948,-1.76294
-26.1289,-28.295,-1.7633
-26.1233,-28.2904,-1.75911
-26.1133,-28.2774,-1.75866
-26.1054,-28.2674,-1.75729
-26.1009,-28.2624,-1.75638
-26.0967,-28.2539,-1.75324
-26.092,-28.2449,-1.74864
-26.0913,-28.2452,-1.74582
-26.0944,-28.2449,-1.74386
-26.0938,-28.2399,-1.74077
-26.0884,-28.2319,-1.73963
-26.0812,-28.2249,-1.73794
-26.0792,-28.2166,-1.73576
-26.0696,-28.2053,-1.7318
-26.0716,-28.2024,-1.72884
-26.0691,-28.199,-1.72456
-26.0678,-28.1912,-1.71905
-26.0671,-28.1893,-1.71832
-26.0676,-28.19,-1.71932
-26.0676,-28.1866,-1.71477
-26.0682,-28.1854,-1.71409
-26.0637,-28.182,-1.71341
-26.057,-28.1729,-1.71213
-26.0555,-28.1697,-1.70826
-26.0624,-28.1692,-1.70357
-26.0658,-28.1687,-1.69979
-26.0622,-28.1627,-1.69624
-26.0532,-28.154,-1.69374
-26.0528,-28.1484,-1.69155
-26.0478,-28.1412,-1.68969
-26.0369,-28.1269,-1.68755
-26.0221,-28.109,-1.68509
-26.0192,-28.1032,-1.68227
-26.0106,-28.095,-1.68054
-26.0041,-28.085,-1.67744
-26.0093,-28.0877,-1.67503
-26.0189,-28.0935,-1.67166
-26.0283,-28.0991,-1.66551
-26.0362,-28.1085,-1.66738
-26.0431,-28.1182,-1.67212
-26.0501,-28.1247,-1.67052
-26.0537,-28.1281,-1.67016
-26.0543,-28.125,-1.66729
-26.0501,-28.1201,-1.66629
-26.0552,-28.124,-1.66511
-26.0642,-28.1305,-1.66356
-26.0684,-28.1342,-1.66178
-26.0774,-28.1412,-1.65887
-26.083,-28.1385,-1.65336
-26.0736,-28.1293,-1.65213
-26.0622,-28.1208,-1.65341
-26.0575,-28.1163,-1.6545
-26.0512,-28.11,-1.65536
-26.049,-28.1075,-1.6524
-26.0478,-28.1025,-1.65131
-26.0487,-28.1054,-1.65195
-26.0512,-28.1051,-1.64958
-26.0555,-28.1046,-1.64617
-26.0572,-28.1056,-1.64344
-26.0568,-28.1032,-1.64275
-26.059,-28.1013,-1.63815
-26.0581,-28.0979,-1.63656
-26.0561,-28.0928,-1.63174
-26.0469,-28.0817,-1.62791
-26.0351,-28.0671,-1.62809
-26.0283,-28.0572,-1.62486
-26.0268,-28.0536,-1.62218
-26.0223,-28.0444,-1.61867
-26.0207,-28.0393,-1.61348
-26.023,-28.0393,-1.61102
-26.0192,-28.0321,-1.60747
-26.0209,-28.0318,-1.60688
-26.0203,-28.0267,-1.60324
-26.0189,-28.0205,-1.59431
-26.0221,-28.0209,-1.59331
-26.0295,-28.0248,-1.59104
-26.0395,-28.0338,-1.58931
-26.049,-28.0461,-1.59249
-26.0604,-28.0587,-1.597
-26.0615,-28.0604,-1.59468
-26.0664,-28.0604,-1.58972
-26.0743,-28.0655,-1.58721
-26.0781,-28.0715,-1.58739
-26.0848,-28.0809,-1.59104
-26.0897,-28.0904,-1.5945
-26.0873,-28.0887,-1.59873
-26.079,-28.0807,-1.60001
-26.0779,-28.0821,-1.60105
-26.0758,-28.0848,-1.60565
-26.0702,-28.0797,-1.60538
-26.0644,-28.0759,-1.60665
-26.0655,-28.0788,-1.60738
-26.0658,-28.0773,-1.60656
-26.0651,-28.0744,-1.60483
-26.0667,-28.0802,-1.60661
-26.0664,-28.079,-1.60697
-26.0615,-28.0768,-1.61079
-26.0575,-28.0715,-1.61089
-26.0575,-28.0751,-1.61225
-26.0593,-28.0785,-1.61439
-26.0617,-28.0817,-1.61794
-26.0581,-28.0824,-1.61922
-26.0617,-28.0882,-1.62076
-26.0561,-28.0802,-1.62127
-26.0519,-28.078,-1.62254
-26.053,-28.0795,-1.62436
-26.0541,-28.0834,-1.62468
-26.0577,-28.0935,-1.6301
-26.0622,-28.0967,-1.63251
-26.0604,-28.0988,-1.63693
-26.0633,-28.1051,-1.63715
-26.0696,-28.1155,-1.64212
-26.0718,-28.1245,-1.65013
-26.0727,-28.131,-1.65582
-26.0723,-28.1368,-1.65973
-26.0767,-28.1443,-1.66287
-26.0797,-28.1547,-1.67111
-26.0799,-28.1586,-1.67753
-26.0814,-28.1687,-1.67999
-26.0839,-28.1721,-1.68605
-26.0828,-28.1724,-1.68764
-26.0812,-28.1758,-1.6891
-26.0779,-28.177,-1.69515
-26.0797,-28.182,-1.69661
-26.0797,-28.1847,-1.70275
-26.0736,-28.1813,-1.70357
-26.0747,-28.1823,-1.70385
-26.077,-28.19,-1.70731
-26.0837,-28.2004,-1.71322
-26.0882,-28.2091,-1.71564
-26.0864,-28.2065,-1.71846
-26.0841,-28.2067,-1.7181
-26.0846,-28.214,-1.72433
-26.0886,-28.2205,-1.7277
-26.0897,-28.2283,-1.73371
-26.0911,-28.2348,-1.74131
-26.0956,-28.2459,-1.74737
-26.1014,-28.2563,-1.75224
-26.1045,-28.2624,-1.75279
-26.1018,-28.2703,-1.76417
-26.1045,-28.2803,-1.77382
-26.1079,-28.2921,-1.77883
-26.1159,-28.3049,-1.78579
-26.1207,-28.3156,-1.79257
-26.1198,-28.3226,-1.80059
-26.1119,-28.3209,-1.80523
-26.1081,-28.3231,-1.8111
-26.1106,-28.3313,-1.81766
-26.1148,-28.3405,-1.82144
-26.1175,-28.3453,-1.82349
-26.12,-28.3473,-1.82426
-26.1249,-28.354,-1.82531
-26.1316,-28.3649,-1.82776
-26.1339,-28.3666,-1.83009
-26.1426,-28.3782,-1.83145
-26.1527,-28.3947,-1.835
-26.1581,-28.4007,-1.83874
-26.1619,-28.408,-1.84074
-26.1713,-28.4157,-1.84078
-26.1695,-28.4123,-1.83833
-26.1679,-28.4102,-1.84124
-26.1648,-28.4077,-1.84051
-26.1677,-28.4085,-1.83646
-26.1729,-28.409,-1.8315
-26.1733,-28.4082,-1.83118
-26.1827,-28.4237,-1.83755
-26.1975,-28.4467,-1.84625
-26.2181,-28.4815,-1.85676
-26.241,-28.5161,-1.87251
-26.2641,-28.5502,-1.88221
-26.2887,-28.5897,-1.90051
-26.3201,-28.6453,-1.92824
-26.3458,-28.7038,-1.95296
-26.366,-28.7525,-1.98255
-26.3819,-28.7887,-1.99944
-26.3841,-28.8011,-2.0125
-26.3902,-28.8231,-2.02757
-26.3942,-28.8352,-2.03777
-26.3965,-28.8509,-2.04938
-26.409,-28.8693,-2.05716
-26.4104,-28.8691,-2.05211
-26.4142,-28.8753,-2.03977
-26.426,-28.8935,-2.06609
-26.4276,-28.9092,-2.07646
-26.4227,-28.9017,-2.07646
-26.4025,-28.8758,-2.06932
-26.3718,-28.8304,-2.0563
-26.329,-28.775,-2.03754
-26.2815,-28.6927,-2.01023
-26.2089,-28.5783,-1.96215
-26.1213,-28.4421,-1.92382
-26.0232,-28.2674,-1.78274
-25.921,-28.086,-1.75256
-25.8303,-27.9196,-1.68987
-25.7223,-27.7369,-1.6092
-25.5719,-27.4721,-1.49798
-25.4433,-27.2589,-1.41222
-25.325,-27.0528,-1.32244
-25.2047,-26.825,-1.21655
-25.0936,-26.6065,-1.10465
-24.9914,-26.399,-1.00878
-24.8805,-26.188,-0.87571
-24.796,-26.0354,-0.819578
-24.7391,-25.8973,-0.758257
-24.712,-25.8066,-0.686009
-24.6945,-25.7347,-0.636251
-24.6746,-25.6665,-0.585901
-24.677,-25.6222,-0.541469
-24.6779,-25.5765,-0.493622
-24.6737,-25.5228,-0.445458
-24.6676,-25.4713,-0.39884
-24.6652,-25.4265,-0.355729
-24.6643,-25.3864,-0.316532
-24.6692,-25.3494,-0.276061
-24.6808,-25.3172,-0.231128
-24.7026,-25.3029,-0.195664
-24.7409,-25.3184,-0.173039
-24.794,-25.3694,-0.170125
-24.8265,-25.3878,-0.159928
-24.8612,-25.4476,-0.184966
-24.9157,-25.5535,-0.230081
-24.9697,-25.6442,-0.279976
-25.027,-25.7379,-0.354135
-25.0904,-25.8586,-0.35978
-25.161,-26.0049,-0.44177
-25.2345,-26.1655,-0.523987
-25.3129,-26.3291,-0.616994
-25.3994,-26.4996,-0.696753
-25.4801,-26.6714,-0.785981
-25.5502,-26.8184,-0.862872
-25.595,-26.9251,-0.92606
-25.6465,-27.0453,-0.992025
-25.7017,-27.1731,-1.08039
-25.7635,-27.3194,-1.15232
-25.8231,-27.46,-1.23271
-25.8646,-27.5451,-1.27705
-25.8888,-27.593,-1.29959
-25.8966,-27.6061,-1.30373
-25.8993,-27.6119,-1.30901
-25.9004,-27.6083,-1.30282
-25.9047,-27.6066,-1.29831
-25.9071,-27.6092,-1.30036
-25.9103,-27.6124,-1.30355
-25.9228,-27.6266,-1.30382
-25.9398,-27.6516,-1.30569
-25.951,-27.6726,-1.31821
-25.9605,-27.6985,-1.3346
-25.973,-27.7246,-1.3468
-25.9889,-27.7498,-1.35649
-25.9992,-27.7662,-1.36287
-26.0104,-27.7827,-1.37052
-26.0158,-27.7967,-1.37616
-26.0239,-27.8081,-1.38003
-26.0277,-27.8151,-1.38517
-26.0308,-27.819,-1.38372
-26.0304,-27.819,-1.38508
-26.0371,-27.8274,-1.38772
-26.0442,-27.8361,-1.38731
-26.0501,-27.8412,-1.38763
-26.0548,-27.8489,-1.38772
-26.0649,-27.8567,-1.38709
-26.0718,-27.8695,-1.39273
-26.0839,-27.8847,-1.39851
-26.0938,-27.8988,-1.40307
-26.0987,-27.9101,-1.40739
-26.1119,-27.9254,-1.40903
-26.124,-27.943,-1.41335
-26.1345,-27.9556,-1.41932
-26.1466,-27.9764,-1.42528
-26.163,-27.9975,-1.43129
-26.1794,-28.0166,-1.43366
-26.1939,-28.0376,-1.43976
-26.2134,-28.0642,-1.44736
-26.2291,-28.0884,-1.46006
-26.2432,-28.11,-1.46252
-26.2562,-28.1322,-1.46971
-26.2658,-28.1516,-1.48046
-26.2773,-28.1733,-1.49412
-26.2847,-28.1951,-1.50832
-26.2865,-28.2084,-1.51651
-26.2939,-28.2215,-1.52134
-26.2974,-28.2292,-1.52826
-26.2885,-28.2312,-1.53805
-26.2831,-28.2406,-1.5584
-26.2748,-28.2447,-1.568
-26.2755,-28.2585,-1.57975
-26.2793,-28.2764,-1.59272
-26.2721,-28.2742,-1.59909
-26.2632,-28.2752,-1.60865
-26.2616,-28.2885,-1.62277
-26.2528,-28.2945,-1.63806
-26.2528,-28.3149,-1.65891
-26.2605,-28.3407,-1.67476
-26.26,-28.3499,-1.68819
-26.2638,-28.3603,-1.69766
-26.2679,-28.3722,-1.69911
-26.2779,-28.3983,-1.71559
-26.2878,-28.4167,-1.72351
-26.2894,-28.4295,-1.73599
-26.2972,-28.4508,-1.75156
-26.2997,-28.4619,-1.75807
-26.295,-28.4624,-1.76408
-26.2934,-28.4702,-1.77209
-26.2959,-28.4726,-1.77268
-26.3015,-28.4784,-1.77277
-26.3149,-28.4895,-1.77136
-26.3315,-28.5062,-1.7699
-26.3478,-28.528,-1.77573
-26.3622,-28.5406,-1.77459
-26.3779,-28.5572,-1.77541
-26.3938,-28.5705,-1.77364
-26.4097,-28.5839,-1.76972
-26.4294,-28.603,-1.76845
-26.4547,-28.6243,-1.76917
-26.4794,-28.6448,-1.76303
-26.5031,-28.6644,-1.75634
-26.5275,-28.6855,-1.75497
-26.5439,-28.7065,-1.75675
-26.5605,-28.7251,-1.76103
-26.5795,-28.7459,-1.76244
-26.599,-28.7728,-1.76972
-26.6208,-28.8006,-1.77509
-26.6441,-28.8255,-1.77919
-26.6631,-28.8502,-1.78356
-26.6754,-28.8647,-1.78752
-26.6902,-28.8812,-1.78784
-26.7108,-28.9017,-1.78634
-26.7225,-28.9138,-1.78584
-26.7409,-28.93,-1.78365
-26.7487,-28.9402,-1.78456
-26.7644,-28.9576,-1.78952
-26.7767,-28.968,-1.78757
-26.7908,-28.9837,-1.78889
-26.8043,-29.0011,-1.79348
-26.8069,-29.0101,-1.80022
-26.8069,-29.0147,-1.80682
-26.8056,-29.0176,-1.80746
-26.8016,-29.0198,-1.81219
-26.8069,-29.0287,-1.8183
-26.8119,-29.0386,-1.82362
-26.8184,-29.0498,-1.82904
-26.8238,-29.0611,-1.83259
-26.8285,-29.0735,-1.84201
-26.839,-29.0865,-1.84078
-26.8432,-29.0955,-1.84807
-26.839,-29.0986,-1.86168
-26.83,-29.0981,-1.86132
-26.8224,-29.1039,-1.87679
-26.8246,-29.1185,-1.88758
-26.8238,-29.1269,-1.90088
-26.8157,-29.1342,-1.91262
-26.8087,-29.1388,-1.92496
-26.796,-29.1451,-1.94444
-26.7796,-29.1494,-1.96174
-26.7715,-29.1516,-1.9764
-26.7612,-29.1562,-1.99798
-26.7498,-29.1584,-1.99953
-26.7415,-29.1576,-2.01018
-26.7303,-29.1606,-2.02634
-26.7207,-29.1651,-2.04278
-26.7063,-29.1683,-2.05721
-26.6985,-29.1772,-2.07428
-26.6895,-29.1826,-2.09012
-26.6743,-29.1814,-2.1051
-26.6557,-29.1806,-2.11735
-26.6414,-29.1806,-2.14234
-26.632,-29.1835,-2.14958
-26.6225,-29.193,-2.16469
-26.6131,-29.2005,-2.18217
-26.6037,-29.2053,-2.19487
-26.5988,-29.2099,-2.20571
-26.5905,-29.2101,-2.21846
-26.5728,-29.2072,-2.22911
-26.56,-29.2058,-2.24094
-26.5459,-29.2036,-2.24955
-26.5365,-29.2099,-2.27349
-26.5352,-29.2215,-2.28724
-26.5244,-29.222,-2.29093
-26.5172,-29.2237,-2.30277
-26.506,-29.2297,-2.31852
-26.4998,-29.2406,-2.33486
-26.4986,-29.2496,-2.34765
-26.4899,-29.2568,-2.36204
-26.4818,-29.2619,-2.37588
-26.4735,-29.2634,-2.38498
-26.461,-29.2643,-2.39914
-26.4509,-29.2651,-2.41353
-26.4478,-29.2759,-2.41981
-26.4386,-29.2764,-2.43242
-26.4305,-29.2759,-2.43807
-26.4296,-29.2813,-2.44735
-26.4272,-29.2834,-2.4515
-26.4245,-29.2863,-2.45837
-26.4166,-29.2895,-2.46697
-26.4131,-29.2929,-2.47581
-26.4077,-29.2963,-2.48373
-26.3987,-29.2967,-2.49811
-26.3938,-29.2996,-2.50125
-26.3906,-29.3055,-2.51095
-26.3859,-29.3103,-2.52078
-26.375,-29.3069,-2.52584
-26.3573,-29.297,-2.5323
-26.3407,-29.2723,-2.52666
-26.331,-29.2578,-2.52374
-26.3275,-29.2568,-2.52429
-26.3165,-29.2515,-2.53021
-26.3133,-29.2544,-2.53708
-26.3154,-29.2614,-2.54191
-26.3149,-29.2663,-2.54569
-26.3165,-29.274,-2.55078
-26.3187,-29.2813,-2.5588
-26.3178,-29.2868,-2.56344
-26.3214,-29.2992,-2.57173
-26.3301,-29.3045,-2.57086
-26.329,-29.3016,-2.56708
-26.3317,-29.3016,-2.56608
-26.3301,-29.3028,-2.56444
-26.334,-29.3098,-2.56804
-26.3349,-29.3071,-2.56654
-26.3308,-29.2967,-2.56194
-26.3248,-29.2885,-2.55948
-26.3185,-29.2774,-2.55461
-26.3118,-29.267,-2.54942
-26.3082,-29.2626,-2.5491
-26.3037,-29.2525,-2.54295
-26.2979,-29.2336,-2.53085
-26.2896,-29.2128,-2.51787
-26.2849,-29.2005,-2.50881
-26.284,-29.1903,-2.50216
-26.2838,-29.1821,-2.49392
-26.282,-29.1785,-2.49156
-26.2831,-29.177,-2.48846
-26.284,-29.1765,-2.48778
-26.2849,-29.1746,-2.48532
-26.2831,-29.1702,-2.48131
-26.2746,-29.1608,-2.48218
-26.2735,-29.1569,-2.47776
-26.2737,-29.1516,-2.46779
-26.2813,-29.1487,-2.46602
-26.2851,-29.1487,-2.46101
-26.2838,-29.1417,-2.45482
-26.2768,-29.1274,-2.44517
-26.2775,-29.1202,-2.43716
-26.2732,-29.1071,-2.42969
-26.2688,-29.0969,-2.42304
-26.2598,-29.0807,-2.41626
-26.2493,-29.0652,-2.41093
-26.2448,-29.0466,-2.39168
-26.234,-29.0256,-2.38344
-26.2318,-29.0101,-2.37497
-26.2329,-29.0002,-2.36659
-26.234,-28.9941,-2.3563
-26.2338,-28.9857,-2.34602
-26.2316,-28.9743,-2.33486
-26.2369,-28.967,-2.32603
-26.2399,-28.9622,-2.31793
-26.2412,-28.9518,-2.30855
-26.2455,-28.9479,-2.29471
-26.2446,-28.9402,-2.28756
-26.2448,-28.9281,-2.28087
-26.2448,-28.9215,-2.27095
-26.2443,-28.9128,-2.26439
-26.245,-28.9046,-2.2567
-26.2414,-28.8928,-2.24677
-26.2363,-28.8804,-2.23853
-26.2351,-28.8666,-2.23011
-26.2318,-28.857,-2.22269
-26.2262,-28.8427,-2.2068
-26.2262,-28.8313,-2.19806
-26.2262,-28.8224,-2.19401
-26.2206,-28.8088,-2.18204
-26.2237,-28.8023,-2.17411
-26.2257,-28.7929,-2.16387
-26.2239,-28.7854,-2.15677
-26.2195,-28.7723,-2.14908
-26.215,-28.76,-2.14011
-26.2143,-28.7476,-2.1305
-26.2174,-28.7379,-2.11393
-26.2166,-28.7246,-2.09868
-26.2092,-28.7058,-2.0949
-26.213,-28.7007,-2.0842
-26.2235,-28.6985,-2.06955
-26.23,-28.6922,-2.05848
-26.2289,-28.6896,-2.05548
-26.2354,-28.6867,-2.04633
-26.23,-28.6809,-2.04651
-26.2195,-28.6792,-2.05429
-26.2107,-28.675,-2.0608
-26.206,-28.6738,-2.06335
-26.2083,-28.6736,-2.06381
-26.2152,-28.6823,-2.06294
-26.2195,-28.6891,-2.06458
-26.2244,-28.6934,-2.06317
-26.2246,-28.6913,-2.06194
-26.2271,-28.6879,-2.05903
-26.2257,-28.6917,-2.06071
-26.2286,-28.6951,-2.06299
-26.2322,-28.6937,-2.05639
-26.2334,-28.6944,-2.05461
-26.2336,-28.6915,-2.05288
-26.2307,-28.6869,-2.05147
-26.2291,-28.6813,-2.05129
-26.2255,-28.6775,-2.04724
-26.2275,-28.6736,-2.0395
-26.2226,-28.6586,-2.03085
-26.2177,-28.6513,-2.02784
-26.217,-28.6446,-2.02475
-26.2139,-28.6414,-2.02202
-26.2121,-28.6395,-2.02129
-26.2011,-28.6279,-2.02092
-26.1971,-28.6235,-2.02252
-26.2011,-28.6262,-2.01974
-26.1962,-28.6259,-2.02484
-26.1908,-28.6269,-2.03099
-26.1834,-28.6182,-2.03226
-26.1787,-28.6187,-2.03404
-26.1803,-28.623,-2.03777
-26.1836,-28.6281,-2.04114
-26.1937,-28.6388,-2.03973
-26.1986,-28.6388,-2.03481
-26.2024,-28.6407,-2.03417
-26.2053,-28.6419,-2.03308
-26.2087,-28.6465,-2.03303
-26.2148,-28.6499,-2.03135
-26.2201,-28.6562,-2.02844
-26.2222,-28.6545,-2.02616
-26.2271,-28.6605,-2.02989
-26.2275,-28.6601,-2.02671
-26.2278,-28.6574,-2.02457
-26.2235,-28.6576,-2.02643
-26.2089,-28.6419,-2.02721
-26.202,-28.6334,-2.02825
-26.1973,-28.6305,-2.0319
-26.198,-28.632,-2.02903
-26.1968,-28.6272,-2.0242
-26.1971,-28.6226,-2.01892
-26.2056,-28.6281,-2.0176
-26.2067,-28.6313,-2.0192
-26.2134,-28.6361,-2.01706
-26.2219,-28.6426,-2.01756
-26.2327,-28.6542,-2.01687
-26.2414,-28.6634,-2.01756
-26.2484,-28.6734,-2.02001
-26.2641,-28.693,-2.02448
-26.2728,-28.7021,-2.02598
-26.2777,-28.7099,-2.02816
-26.2858,-28.7205,-2.03026
-26.2882,-28.7244,-2.03089
-26.2865,-28.722,-2.03185
-26.293,-28.7297,-2.02998
-26.2939,-28.7288,-2.03062
-26.2939,-28.73,-2.03026
-26.2903,-28.7222,-2.02543
-26.2849,-28.7203,-2.02898
-26.2826,-28.7123,-2.02611
-26.2761,-28.7077,-2.02812
-26.2688,-28.7024,-2.02693
-26.2683,-28.6954,-2.02407
-26.2614,-28.6881,-2.02061
-26.2537,-28.677,-2.01828
-26.2549,-28.6767,-2.0202
-26.2589,-28.6748,-2.01068
-26.2437,-28.6574,-2.00986
-26.2181,-28.6327,-2.01114
-26.1989,-28.6141,-2.01168
-26.1894,-28.6068,-2.01373
-26.1856,-28.6044,-2.01574
-26.1847,-28.6076,-2.01792
-26.1814,-28.6109,-2.02325
-26.1697,-28.6068,-2.03208
-26.1603,-28.6047,-2.03964
-26.1641,-28.6085,-2.04027
-26.1637,-28.6124,-2.04455
-26.163,-28.6148,-2.04833
-26.1569,-28.6112,-2.05193
-26.1437,-28.6047,-2.05552
-26.141,-28.6049,-2.06008
-26.1332,-28.601,-2.06294
-26.1276,-28.5962,-2.06449
-26.1289,-28.5952,-2.0644
-26.1251,-28.5882,-2.05539
-26.1218,-28.5788,-2.05093
-26.1247,-28.5785,-2.04856
-26.1258,-28.5744,-2.04451
-26.1209,-28.5635,-2.03818
-26.1204,-28.5587,-2.03417
-26.1229,-28.5604,-2.03222
-26.1207,-28.5524,-2.02753
-26.12,-28.5473,-2.02229
-26.1184,-28.5447,-2.02174
-26.1249,-28.5415,-2.00932
-26.1289,-28.5391,-2.00053
-26.1359,-28.5355,-1.99652
-26.1446,-28.5352,-1.98683
-26.1464,-28.5314,-1.98159
-26.1543,-28.5338,-1.9749
-26.1599,-28.534,-1.96976
-26.165,-28.5357,-1.96716
-26.1693,-28.5364,-1.96247
-26.1729,-28.5369,-1.96165
-26.1733,-28.5362,-1.95878
-26.1778,-28.5335,-1.94795
-26.1962,-28.5343,-1.93511
-26.2004,-28.5268,-1.92091
-26.204,-28.5205,-1.91176
-26.2024,-28.5159,-1.90921
-26.2069,-28.5181,-1.90593
-26.2062,-28.5103,-1.89906
-26.2076,-28.5077,-1.89614
-26.2127,-28.5137,-1.89651
-26.2098,-28.5118,-1.89596
-26.208,-28.5093,-1.89323
-26.2096,-28.505,-1.89291
-26.2157,-28.5011,-1.88176
-26.2101,-28.4854,-1.87069
-26.2033,-28.4675,-1.86318
-26.2045,-28.4636,-1.85412
-26.2094,-28.4619,-1.84634
-26.2159,-28.4612,-1.83773
-26.2213,-28.4595,-1.83546
-26.2239,-28.4585,-1.83355
-26.2293,-28.4585,-1.82112
-26.2334,-28.4547,-1.81811
-26.2367,-28.4556,-1.8157
-26.2365,-28.4501,-1.80714
-26.2443,-28.4506,-1.80168
-26.2486,-28.452,-1.79804
-26.252,-28.4472,-1.79239
-26.2569,-28.4448,-1.78561
-26.2605,-28.4433,-1.7786
-26.2598,-28.4334,-1.77232
-26.2589,-28.4259,-1.76112
-26.2589,-28.4186,-1.75201
-26.2578,-28.4102,-1.7476
-26.2584,-28.3981,-1.73417
-26.262,-28.3932,-1.72802
-26.2618,-28.386,-1.7221
-26.256,-28.3753,-1.71368
-26.2558,-28.3676,-1.70844
-26.2593,-28.3632,-1.70048
-26.2625,-28.3572,-1.69124
-26.2661,-28.3521,-1.68322
-26.2645,-28.3468,-1.67599
-26.2665,-28.3424,-1.67394
-26.2679,-28.3415,-1.6677
-26.2697,-28.3388,-1.66606
-26.2663,-28.3337,-1.66369
-26.2569,-28.3248,-1.66297
-26.2488,-28.3165,-1.66574
-26.2495,-28.3195,-1.66724
-26.2472,-28.3173,-1.66638
-26.2401,-28.3112,-1.66647
-26.2217,-28.2902,-1.66743
-26.2132,-28.28,-1.66383
-26.2065,-28.2745,-1.66574
-26.2094,-28.2815,-1.66884
-26.2109,-28.2846,-1.67043
-26.2036,-28.2866,-1.67676
-26.1982,-28.2851,-1.68491
-26.1977,-28.2885,-1.68677
-26.1975,-28.295,-1.69333
-26.1939,-28.2933,-1.69506
-26.1906,-28.2984,-1.70603
-26.1897,-28.304,-1.70981
-26.185,-28.302,-1.71354
-26.1782,-28.3015,-1.71796
-26.1769,-28.3095,-1.72779
-26.1738,-28.31,-1.73153
-26.1691,-28.3095,-1.73763
-26.1648,-28.3083,-1.7414
-26.1567,-28.3057,-1.74591
-26.1543,-28.31,-1.75101
-26.1449,-28.3047,-1.75652
-26.1254,-28.2916,-1.76221
-26.1139,-28.282,-1.76417
-26.1032,-28.2749,-1.76886
-26.0931,-28.2648,-1.76931
-26.087,-28.2607,-1.76881
-26.0853,-28.2597,-1.77181
-26.0752,-28.2563,-1.7745
-26.0673,-28.2491,-1.77723
-26.0617,-28.2469,-1.78046
-26.0492,-28.2374,-1.78443
-26.0413,-28.2297,-1.78693
-26.0398,-28.2268,-1.78506
-26.0389,-28.2309,-1.7908
-26.0398,-28.2345,-1.79153
-26.0384,-28.2362,-1.79512
-26.0384,-28.2401,-1.79849
-26.0375,-28.2425,-1.80227
-26.0391,-28.2486,-1.80641
-26.0371,-28.25,-1.8081
-26.0413,-28.2595,-1.81675
-26.0485,-28.2716,-1.82185
-26.051,-28.2778,-1.82562
-26.0532,-28.2839,-1.82654
-26.0552,-28.2892,-1.83163
-26.053,-28.2945,-1.83623
-26.0525,-28.2984,-1.84324
-26.0463,-28.2989,-1.84866
-26.0395,-28.2982,-1.8533
-26.0319,-28.2965,-1.85922
-26.0257,-28.2948,-1.86132
-26.0357,-28.2974,-1.86109
-26.0521,-28.3078,-1.85089
-26.0534,-28.3161,-1.85613
-26.0528,-28.324,-1.86578
-26.0521,-28.3323,-1.8762
-26.0425,-28.3352,-1.88795
-26.0422,-28.3415,-1.89459
-26.0429,-28.3473,-1.89937
-26.0438,-28.3538,-1.90579
-26.0445,-28.3678,-1.91704
-26.0499,-28.3797,-1.92774
-26.0581,-28.3942,-1.93229
-26.0655,-28.4056,-1.93516
-26.0747,-28.4184,-1.93966
-26.083,-28.4283,-1.9398
-26.09,-28.4368,-1.9439
-26.0891,-28.4438,-1.94886
-26.094,-28.4457,-1.94845
-26.1038,-28.4559,-1.94677
-26.1133,-28.4656,-1.94567
-26.1146,-28.4658,-1.94891
-26.1198,-28.4731,-1.95064
-26.1222,-28.4798,-1.95332
-26.1186,-28.4796,-1.95869
-26.1106,-28.4723,-1.95719
-26.098,-28.4607,-1.95824
-26.0971,-28.4561,-1.95378
-26.0962,-28.4566,-1.95501
-26.1014,-28.4622,-1.95687
-26.1099,-28.4704,-1.95573
-26.1204,-28.4813,-1.96006
-26.1272,-28.4919,-1.96056
-26.1366,-28.5009,-1.96133
-26.1478,-28.5142,-1.96325
-26.1538,-28.5256,-1.96707
-26.1626,-28.5386,-1.97057
-26.1731,-28.5497,-1.97394
-26.1834,-28.5609,-1.9734
-26.1924,-28.5701,-1.97526
-26.2033,-28.5826,-1.9764
-26.2071,-28.5887,-1.97809
-26.2094,-28.5906,-1.98114
-26.2107,-28.5955,-1.98004
-26.2159,-28.603,-1.98246
-26.2208,-28.6097,-1.98551
-26.2217,-28.6143,-1.98938
-26.2253,-28.6177,-1.98751
-26.2286,-28.6223,-1.98765
-26.2316,-28.6269,-1.99229
-26.2329,-28.6313,-1.99306
-26.2351,-28.6354,-1.99493
-26.2383,-28.6397,-1.99848
-26.2394,-28.6465,-2.00162
-26.2434,-28.6521,-2.00627
-26.243,-28.6571,-2.01041
-26.2432,-28.6632,-2.01446
-26.2461,-28.6678,-2.01838
-26.249,-28.6772,-2.02361
-26.2477,-28.6825,-2.02876
-26.2475,-28.6855,-2.03276
-26.2452,-28.6818,-2.03272
-26.241,-28.6801,-2.03809
-26.2472,-28.6903,-2.03895
-26.2493,-28.6939,-2.03927
-26.2513,-28.6985,-2.04351
-26.2578,-28.7101,-2.04788
-26.2517,-28.7111,-2.05275
-26.2533,-28.7135,-2.0563
-26.2571,-28.7258,-2.06253
-26.2647,-28.7413,-2.06991
-26.2748,-28.7568,-2.07697
-26.2856,-28.7699,-2.08029
-26.2939,-28.7832,-2.08562
-26.3001,-28.7902,-2.08543
-26.2974,-28.7897,-2.08775
-26.2974,-28.7912,-2.08971
-26.2853,-28.7849,-2.09285
-26.293,-28.796,-2.0985
-26.301,-28.8074,-2.10118
-26.3039,-28.8151,-2.10751
-26.3136,-28.8299,-2.11366
-26.3207,-28.8398,-2.11639
-26.3261,-28.8487,-2.11771
-26.3308,-28.8509,-2.1168
-26.3364,-28.8584,-2.11671
-26.3366,-28.8613,-2.11803
-26.3434,-28.8606,-2.11657
-26.3416,-28.8608,-2.11448
-26.3378,-28.8589,-2.11425
-26.3344,-28.855,-2.11839
-26.3346,-28.8541,-2.11484
-26.3438,-28.863,-2.11357
-26.3485,-28.8659,-2.11439
-26.3552,-28.8715,-2.11143
-26.3626,-28.8773,-2.11125
-26.3608,-28.8744,-2.10851
-26.3615,-28.8753,-2.11029
-26.3647,-28.878,-2.11211
-26.3626,-28.8802,-2.11393
-26.366,-28.8853,-2.11562
-26.3714,-28.8896,-2.11439
-26.3703,-28.8908,-2.11657
-26.3709,-28.8916,-2.11794
-26.3635,-28.8867,-2.11971
-26.3664,-28.8969,-2.12563
-26.3649,-28.9022,-2.13314
-26.3653,-28.9061,-2.13428
-26.3694,-28.907,-2.13301
-26.3676,-28.9126,-2.13851
-26.375,-28.9174,-2.13851
-26.3799,-28.9215,-2.1376
-26.3783,-28.924,-2.14079
-26.3844,-28.9257,-2.13619
-26.3904,-28.929,-2.13096
-26.3915,-28.9264,-2.12932
-26.3889,-28.9257,-2.1315
-26.3839,-28.9249,-2.13469
-26.3799,-28.9228,-2.14029
-26.377,-28.9215,-2.1407
-26.3759,-28.9191,-2.13742
-26.3727,-28.9124,-2.1371
-26.3703,-28.9092,-2.1351
-26.3676,-28.9034,-2.13314
-26.364,-28.8949,-2.12713
-26.3577,-28.8872,-2.12518
-26.3521,-28.8795,-2.12285
-26.3514,-28.8763,-2.12131
-26.3523,-28.8737,-2.11776
-26.3505,-28.8676,-2.11307
-26.3454,-28.8596,-2.11088
-26.3438,-28.8582,-2.1092
-26.3422,-28.8526,-2.10596
-26.3434,-28.8485,-2.10228
-26.3422,-28.847,-2.09854
-26.3411,-28.8412,-2.09622
-26.3382,-28.8371,-2.0934
-26.3355,-28.8306,-2.0893
-26.3319,-28.8221,-2.08434
-26.3295,-28.8158,-2.08147
-26.325,-28.8069,-2.07642
-26.3257,-28.8045,-2.07574
-26.3241,-28.7996,-2.07168
-26.31,-28.7825,-2.068
-26.3015,-28.7704,-2.06226
-26.2974,-28.7621,-2.05862
-26.2947,-28.7558,-2.05798
-26.29,-28.7457,-2.05024
-26.2907,-28.7416,-2.04774
-26.2907,-28.7396,-2.04232
-26.2905,-28.7355,-2.04045
-26.2921,-28.7346,-2.03932
-26.2945,-28.7365,-2.03495
-26.2952,-28.7314,-2.03167
-26.2851,-28.7213,-2.02957
-26.2766,-28.706,-2.0237
-26.2719,-28.6983,-2.02165
-26.271,-28.6949,-2.01965
-26.2717,-28.6975,-2.01901
-26.2739,-28.692,-2.01205
-26.2757,-28.6879,-2.0064
-26.2699,-28.6772,-2.00258
-26.2679,-28.6712,-2.00121
-26.2667,-28.6729,-1.99926
-26.2688,-28.6709,-1.99611
-26.2681,-28.6646,-1.99211
-26.262,-28.6571,-1.99124
-26.2589,-28.6494,-1.98797
-26.2537,-28.6422,-1.98441
-26.2495,-28.6359,-1.982
-26.2396,-28.6189,-1.97718
-26.2195,-28.5894,-1.96684
-26.2078,-28.5764,-1.96197
-26.2036,-28.5679,-1.96047
-26.2065,-28.566,-1.95696
-26.2103,-28.5681,-1.95241
-26.2078,-28.5638,-1.95173
-26.2067,-28.5589,-1.94936
-26.2118,-28.563,-1.94845
-26.2172,-28.5703,-1.94881
-26.2311,-28.5793,-1.94572
-26.2425,-28.5884,-1.9423
-26.2475,-28.5906,-1.93898
-26.2437,-28.5834,-1.9362
-26.2434,-28.5788,-1.9301
-26.2414,-28.5759,-1.92632
-26.2414,-28.5725,-1.92469
-26.2414,-28.566,-1.92268
-26.2363,-28.5529,-1.91367
-26.232,-28.5442,-1.90834
-26.2197,-28.5294,-1.90493
-26.2109,-28.5239,-1.9062
-26.2071,-28.5173,-1.90602
-26.1995,-28.512,-1.90802
-26.185,-28.4989,-1.90966
-26.1722,-28.4871,-1.90957
-26.1677,-28.4813,-1.9108
-26.1626,-28.4818,-1.91572
-26.1623,-28.4854,-1.91913
-26.1621,-28.4832,-1.91863
-26.161,-28.4801,-1.91558
-26.1587,-28.4777,-1.91554
-26.1563,-28.4767,-1.9149
-26.1464,-28.4627,-1.91408
-26.1345,-28.445,-1.90716
-26.1321,-28.4385,-1.90192
-26.1287,-28.4324,-1.89701
-26.1269,-28.4249,-1.89519
-26.1274,-28.4206,-1.89182
-26.118,-28.4104,-1.88631
-26.1128,-28.394,-1.87684
-26.1083,-28.3804,-1.86723
-26.0974,-28.3644,-1.86223
-26.0971,-28.3589,-1.85786
-26.096,-28.3504,-1.8488
-26.0971,-28.3499,-1.8477
-26.0942,-28.3465,-1.84729
-26.0915,-28.3429,-1.84943
-26.0904,-28.3456,-1.85217
-26.0861,-28.3449,-1.85335
-26.0848,-28.3432,-1.85226
-26.0801,-28.3361,-1.85071
-26.0763,-28.3335,-1.85098
-26.0785,-28.3349,-1.85139
-26.079,-28.3328,-1.85107
-26.0732,-28.325,-1.84725
-26.0669,-28.3153,-1.84374
-26.0646,-28.3061,-1.83869
-26.0577,-28.296,-1.83528
-26.0568,-28.2957,-1.83623
-26.0561,-28.2986,-1.83864
-26.0532,-28.295,-1.83664
-26.049,-28.2919,-1.84015
-26.0465,-28.2909,-1.84283
-26.0429,-28.2919,-1.84201
-26.0434,-28.2926,-1.84256
-26.0458,-28.2965,-1.84447
-26.0507,-28.3011,-1.84593
-26.0541,-28.3018,-1.8452
-26.0532,-28.302,-1.84415
-26.0512,-28.3035,-1.84388
-26.0546,-28.3025,-1.8432
-26.0543,-28.3035,-1.84383
-26.0541,-28.3008,-1.84361
-26.0539,-28.302,-1.84292
-26.0541,-28.2989,-1.84092
-26.0499,-28.2878,-1.83318
-26.0483,-28.2788,-1.82508
-26.0467,-28.2742,-1.82412
-26.0411,-28.2684,-1.82203
-26.0364,-28.2624,-1.82257
-26.0335,-28.257,-1.81993
-26.0346,-28.2573,-1.81657
-26.0378,-28.257,-1.81506
-26.0366,-28.2561,-1.81666
-26.0346,-28.2561,-1.81661
-26.0254,-28.2491,-1.8182
-26.0147,-28.2367,-1.81748
-26.0109,-28.2328,-1.81748
-26.0178,-28.2406,-1.81793
-26.0214,-28.2403,-1.81752
-26.0131,-28.235,-1.81834
-26.0127,-28.2338,-1.81593
-26.0183,-28.2345,-1.8111
-26.0281,-28.243,-1.81101
-26.0317,-28.2469,-1.81311
-26.0324,-28.2498,-1.81397
-26.0326,-28.2491,-1.81342
-26.0319,-28.2512,-1.81547
-26.0409,-28.2597,-1.81433
-26.0442,-28.2604,-1.80983
-26.0362,-28.2522,-1.81397
-26.0315,-28.2556,-1.81921
-26.0301,-28.2568,-1.82021
-26.0236,-28.2522,-1.82558
-26.0221,-28.2544,-1.82904
-26.023,-28.2585,-1.83182
-26.0138,-28.2549,-1.83637
-26.0059,-28.2512,-1.84074
-26.001,-28.2512,-1.84629
-25.9894,-28.2464,-1.85217
-25.982,-28.2452,-1.8574
-25.9871,-28.2433,-1.85271
-25.9802,-28.2353,-1.85171
-25.9694,-28.2263,-1.85303
-25.9661,-28.2253,-1.85144
-25.9649,-28.2191,-1.85189
-25.9522,-28.2067,-1.85021
-25.9441,-28.1995,-1.85021
-25.938,-28.1922,-1.85016
-25.9322,-28.1898,-1.85303
-25.9304,-28.1893,-1.85376
-25.928,-28.1925,-1.86059
-25.9345,-28.2009,-1.86154
-25.9356,-28.2004,-1.86118
-25.9405,-28.2033,-1.8605
-25.9492,-28.2171,-1.8655
-25.9504,-28.2217,-1.86814
-25.9486,-28.2222,-1.87511
-25.9477,-28.2278,-1.87315
-25.9443,-28.2283,-1.87902
-25.9439,-28.2343,-1.88453
-25.9454,-28.2413,-1.89086
-25.9479,-28.2423,-1.89045
-25.9401,-28.2377,-1.89414
-25.9376,-28.2394,-1.89915
-25.9342,-28.2403,-1.90138
-25.9313,-28.2401,-1.90161
-25.9345,-28.2416,-1.90456
-25.9333,-28.2435,-1.90374
-25.9354,-28.2437,-1.90456
-25.9347,-28.2411,-1.90019
-25.9412,-28.2445,-1.90033
-25.9407,-28.2457,-1.89988
-25.936,-28.242,-1.90156
-25.9376,-28.2445,-1.90283
-25.9416,-28.2505,-1.90242
-25.9436,-28.2517,-1.90129
-25.9546,-28.2546,-1.89769
-25.9475,-28.2474,-1.8961
-25.9315,-28.2343,-1.89755
-25.9208,-28.2295,-1.90393
-25.9188,-28.2309,-1.90807
-25.9194,-28.2324,-1.91103
-25.9228,-28.2423,-1.91444
-25.9309,-28.2566,-1.92132
-25.9389,-28.2711,-1.92796
-25.9481,-28.2853,-1.93261
-25.9569,-28.295,-1.93361
-25.9625,-28.2979,-1.93338
-25.9649,-28.3013,-1.9307
-25.9725,-28.3112,-1.93393
-25.9844,-28.3286,-1.93966
-25.9959,-28.347,-1.94381
-26.008,-28.362,-1.95027
-26.016,-28.3732,-1.95309
-26.0201,-28.379,-1.95455
-26.0218,-28.3821,-1.95623
-26.0207,-28.3855,-1.96042
-26.0234,-28.394,-1.96711
-26.0234,-28.3944,-1.96479
-26.0218,-28.3954,-1.96971
-26.0227,-28.399,-1.97098
-26.0297,-28.4031,-1.96821
-26.0252,-28.3959,-1.9673
-26.0133,-28.3867,-1.96994
-26.0086,-28.3857,-1.97189
-26.0106,-28.3879,-1.97331
-26.0106,-28.3932,-1.97932
-26.012,-28.3986,-1.98664
-26.0171,-28.4094,-1.98783
-26.0196,-28.4237,-1.99866
-26.0232,-28.439,-2.01123
-26.0333,-28.4556,-2.01624
-26.0416,-28.4689,-2.02311
-26.0465,-28.4798,-2.02698
-26.0537,-28.4919,-2.03426
-26.064,-28.5067,-2.03882
-26.0693,-28.5178,-2.04337
-26.0774,-28.5309,-2.05174
-26.0801,-28.5396,-2.0552
-26.0828,-28.5435,-2.05598
-26.0924,-28.5553,-2.05798
-26.0996,-28.5652,-2.06153
-26.0989,-28.5657,-2.06212
-26.098,-28.5614,-2.06076
-26.0985,-28.5623,-2.06208
-26.1025,-28.5691,-2.06212
-26.1164,-28.5848,-2.06185
-26.1254,-28.5969,-2.06804
-26.1339,-28.609,-2.08033
-26.1462,-28.6269,-2.0746
-26.1623,-28.6494,-2.08257
-26.1876,-28.6789,-2.08589
-26.2042,-28.7036,-2.09622
-26.2233,-28.7321,-2.10387
-26.2466,-28.7643,-2.11548
-26.2654,-28.8011,-2.13123
-26.2914,-28.8437,-2.14871
-26.3116,-28.8899,-2.17425
-26.3378,-28.9465,-2.21245
-26.3597,-28.9987,-2.23421
-26.3752,-29.0372,-2.25724
-26.3895,-29.0756,-2.28028
-26.4066,-29.1068,-2.2948
-26.4169,-29.1252,-2.307
-26.4225,-29.1497,-2.31966
-26.431,-29.1552,-2.32157
-26.4395,-29.1627,-2.31806
-26.4489,-29.1785,-2.33067
-26.444,-29.183,-2.30905
-26.4339,-29.1717,-2.32721
-26.4131,-29.1531,-2.33928
-26.3897,-29.1262,-2.33004
-26.3499,-29.0677,-2.31123
-26.306,-28.9951,-2.28474
-26.2455,-28.8884,-2.23603
-26.1632,-28.7578,-2.19269
-26.068,-28.5921,-2.11143
-25.9755,-28.4211,-2.05575
-25.8675,-28.2413,-1.92532
-25.7637,-28.0606,-1.85089
-25.6616,-27.8695,-1.81752
-25.5509,-27.6666,-1.70417
-25.4303,-27.4476,-1.61694
-25.3091,-27.2176,-1.50081
-25.2009,-26.9919,-1.38636
-25.1084,-26.7788,-1.26749
-25.0154,-26.5804,-1.15778
-24.9345,-26.4019,-1.06436
-24.8596,-26.2238,-0.949915
-24.8121,-26.0985,-0.85404
-24.7691,-25.9882,-0.81803
-24.7483,-25.9055,-0.74988
-24.7369,-25.8257,-0.687329
-24.7427,-25.7848,-0.634749
-24.7472,-25.7454,-0.594459
-24.749,-25.718,-0.564868
-24.7478,-25.6866,-0.532728
-24.749,-25.6418,-0.488751
-24.7635,-25.622,-0.45438
-24.7776,-25.5966,-0.424107
-24.7938,-25.5685,-0.370388
-24.8115,-25.5555,-0.342071
-24.8579,-25.5966,-0.335334
-24.8917,-25.6261,-0.330781
-24.9343,-25.6566,-0.320037
-24.9701,-25.7105,-0.340068
-25.0107,-25.8015,-0.382588
-25.0705,-25.9009,-0.431072
-25.1332,-26.0211,-0.474502
-25.1854,-26.1406,-0.607161
-25.2325,-26.2582,-0.635659
-25.2963,-26.4166,-0.713187
-25.3752,-26.6065,-0.832143
-25.4547,-26.793,-0.93084
-25.5287,-26.967,-1.03728
-25.5899,-27.1061,-1.11462
-25.6335,-27.2229,-1.18487
-25.6719,-27.3349,-1.25693
-25.7185,-27.4592,-1.33769
-25.7857,-27.6358,-1.44823
-25.839,-27.7696,-1.52944
-25.8684,-27.833,-1.56104
-25.8903,-27.8743,-1.58052
-25.917,-27.9196,-1.59791
-25.9309,-27.9428,-1.60729
-25.9392,-27.9469,-1.60438
-25.9461,-27.9455,-1.59746
-25.9499,-27.9467,-1.59268
-25.9515,-27.9394,-1.58393
-25.9575,-27.9375,-1.57915
-25.9636,-27.9418,-1.57838
-25.9699,-27.9489,-1.57597
-25.9728,-27.9549,-1.57938
-25.9761,-27.9651,-1.58339
-25.9976,-27.9895,-1.58903
-26.0041,-28.0006,-1.59272
-26.0059,-28.0117,-1.60005
-26.0203,-28.0362,-1.61293
-26.0283,-28.0584,-1.62422
-26.0322,-28.0744,-1.63834
-26.0411,-28.093,-1.65436
-26.0483,-28.1092,-1.65482
-26.0604,-28.1293,-1.66515
-26.0698,-28.1458,-1.67093
-26.074,-28.1583,-1.67958
-26.0906,-28.1828,-1.6875
-26.1056,-28.2029,-1.69301
-26.1126,-28.2166,-1.70107
-26.1229,-28.2391,-1.71045
-26.1256,-28.2527,-1.71878
-26.1336,-28.2684,-1.73662
-26.1406,-28.2805,-1.73635
-26.1489,-28.295,-1.74122
-26.1601,-28.312,-1.74791
-26.1673,-28.3243,-1.75324
-26.172,-28.3417,-1.76316
-26.1811,-28.3635,-1.77537
-26.1908,-28.3833,-1.78839
-26.2024,-28.407,-1.80245
-26.2141,-28.4285,-1.80955
-26.2208,-28.4479,-1.82986
-26.2215,-28.4624,-1.8391
-26.2329,-28.4823,-1.84502
-26.2432,-28.5035,-1.85772
-26.2392,-28.5096,-1.86728
-26.2381,-28.521,-1.87811
-26.2307,-28.526,-1.89004
-26.2253,-28.5311,-1.90288
-26.2237,-28.5418,-1.9149
-26.2163,-28.5464,-1.92405
-26.2109,-28.5553,-1.9444
-26.213,-28.5691,-1.96079
-26.2132,-28.5865,-1.96734
-26.2132,-28.6027,-1.98624
-26.2152,-28.6177,-1.99734
-26.2226,-28.6339,-2.00822
-26.2257,-28.6431,-2.01519
-26.2242,-28.6535,-2.02438
-26.2273,-28.6637,-2.03335
-26.2237,-28.6717,-2.04269
-26.2278,-28.6871,-2.05703
-26.2224,-28.6942,-2.06923
-26.2269,-28.7041,-2.07382
-26.234,-28.7205,-2.08288
-26.2378,-28.737,-2.09231
-26.2513,-28.7546,-2.09973
-26.256,-28.7633,-2.10433
-26.2618,-28.7774,-2.11261
-26.2674,-28.7921,-2.11949
-26.2804,-28.8086,-2.12153
-26.2896,-28.8219,-2.12763
-26.2934,-28.8289,-2.1341
-26.2959,-28.8342,-2.13556
-26.3024,-28.8454,-2.1377
-26.3156,-28.8649,-2.14589
-26.3245,-28.8785,-2.15126
-26.3344,-28.8913,-2.15094
-26.3384,-28.8974,-2.15463
-26.3452,-28.9082,-2.15836
-26.3543,-28.9194,-2.1621
-26.3651,-28.9346,-2.16597
-26.3779,-28.9499,-2.16947
-26.3924,-28.9648,-2.16956
-26.405,-28.9784,-2.1702
-26.4146,-28.9953,-2.17616
-26.4361,-29.019,-2.17753
-26.4478,-29.0369,-2.18486
-26.4599,-29.05,-2.18764
-26.4619,-29.0524,-2.18727
-26.4664,-29.0575,-2.18641
-26.4854,-29.0744,-2.18468
-26.5004,-29.0906,-2.18349
-26.5027,-29.0928,-2.18481
-26.5121,-29.096,-2.17826
-26.5266,-29.101,-2.17161
-26.5275,-29.096,-2.16342
-26.5293,-29.0902,-2.15877
-26.5338,-29.1001,-2.1631
-26.5421,-29.1136,-2.16674
-26.5464,-29.1214,-2.17229
-26.5506,-29.1306,-2.17466
-26.5629,-29.1472,-2.1849
-26.5683,-29.1593,-2.19401
-26.5771,-29.1792,-2.19651
-26.5862,-29.1932,-2.20475
-26.5914,-29.2097,-2.21281
-26.6019,-29.2256,-2.22142
-26.6096,-29.2351,-2.22132
-26.6116,-29.2416,-2.22538
-26.6174,-29.253,-2.23403
-26.6214,-29.2643,-2.24049
-26.6104,-29.2573,-2.24158
-26.5977,-29.2486,-2.24827
-26.5885,-29.2428,-2.25096
-26.5771,-29.2375,-2.2562
-26.5654,-29.2341,-2.26139
-26.5493,-29.2242,-2.26871
-26.5289,-29.2039,-2.27108
-26.5089,-29.1927,-2.27732
-26.5031,-29.1898,-2.28228
-26.4966,-29.1903,-2.29029
-26.4892,-29.1869,-2.29339
-26.4841,-29.185,-2.29913
-26.4762,-29.1821,-2.30304
-26.4695,-29.1797,-2.30486
-26.4646,-29.1821,-2.31215
-26.4583,-29.1797,-2.31897
-26.4502,-29.1777,-2.32462
-26.4388,-29.1772,-2.33341
-26.4283,-29.1765,-2.34306
-26.4216,-29.1804,-2.35385
-26.4122,-29.1818,-2.36231
-26.4034,-29.1833,-2.37884
-26.398,-29.1908,-2.39213
-26.3929,-29.1927,-2.39373
-26.3918,-29.1951,-2.39946
-26.3812,-29.193,-2.40579
-26.3698,-29.1944,-2.41804
-26.3611,-29.1959,-2.42951
-26.3528,-29.1968,-2.43925
-26.34,-29.193,-2.44949
-26.3272,-29.1891,-2.45523
-26.3176,-29.1901,-2.46729
-26.301,-29.1816,-2.47872
-26.2905,-29.1811,-2.48473
-26.286,-29.1792,-2.49065
-26.2809,-29.1787,-2.49342
-26.2625,-29.161,-2.49024
-26.2551,-29.155,-2.49547
-26.2587,-29.1702,-2.50476
-26.2468,-29.1586,-2.50936
-26.2356,-29.1526,-2.51423
-26.2163,-29.1368,-2.51514
-26.2056,-29.1335,-2.5242
-26.2058,-29.1417,-2.53048
-26.1984,-29.139,-2.53494
-26.1939,-29.1383,-2.54018
-26.187,-29.1313,-2.53927
-26.1843,-29.1277,-2.53877
-26.1894,-29.132,-2.53904
-26.1885,-29.1335,-2.54177
-26.1847,-29.132,-2.54277
-26.187,-29.1322,-2.54031
-26.1834,-29.1337,-2.54473
-26.1845,-29.1373,-2.55074
-26.1838,-29.1417,-2.55224
-26.1789,-29.1378,-2.55292
-26.174,-29.1318,-2.5511
-26.1735,-29.1308,-2.55506
-26.1659,-29.1202,-2.54965
-26.1601,-29.1129,-2.54723
-26.1599,-29.1095,-2.54455
-26.1493,-29.0955,-2.54191
-26.1437,-29.087,-2.53827
-26.1354,-29.0756,-2.53235
-26.1224,-29.057,-2.53189
-26.111,-29.0447,-2.52661
-26.105,-29.0306,-2.52283
-26.0994,-29.0166,-2.51268
-26.0971,-29.0082,-2.50549
-26.1043,-29.0048,-2.49661
-26.1124,-29.0043,-2.487
-26.1106,-28.9946,-2.47963
-26.1142,-28.9941,-2.47335
-26.113,-28.9893,-2.46802
-26.113,-28.983,-2.46725
-26.1182,-28.9847,-2.46142
-26.1159,-28.9828,-2.45964
-26.1115,-28.9726,-2.45673
-26.0985,-28.9639,-2.4606
-26.0938,-28.9603,-2.46206
-26.0942,-28.9552,-2.45732
-26.0877,-28.9411,-2.44936
-26.0844,-28.9266,-2.43843
-26.0801,-28.9157,-2.42582
-26.0711,-28.8971,-2.42222
-26.0624,-28.8845,-2.41503
-26.0579,-28.8717,-2.40848
-26.0555,-28.8572,-2.3991
-26.0418,-28.8398,-2.39063
-26.0384,-28.8272,-2.38357
-26.0351,-28.8168,-2.37506
-26.036,-28.8144,-2.37165
-26.0425,-28.817,-2.36996
-26.0429,-28.8054,-2.35844
-26.0344,-28.7897,-2.3507
-26.0315,-28.78,-2.34392
-26.0391,-28.7846,-2.34019
-26.0301,-28.7691,-2.33486
-26.0265,-28.7665,-2.33523
-26.0348,-28.7745,-2.33395
-26.0382,-28.7754,-2.33286
-26.0436,-28.7786,-2.32853
-26.0499,-28.7854,-2.33245
-26.053,-28.7861,-2.32357
-26.0546,-28.7791,-2.31674
-26.0532,-28.7672,-2.31092
-26.0534,-28.7614,-2.30395
-26.0548,-28.7583,-2.29967
-26.0552,-28.7551,-2.29648
-26.0548,-28.7491,-2.29198
-26.0534,-28.7406,-2.2831
-26.0465,-28.7273,-2.27513
-26.0445,-28.715,-2.26726
-26.0346,-28.6966,-2.25497
-26.0315,-28.6855,-2.24582
-26.0292,-28.6758,-2.24377
-26.0257,-28.6632,-2.23371
-26.0183,-28.6494,-2.22724
-26.0201,-28.6448,-2.21991
-26.0225,-28.6378,-2.21017
-26.0241,-28.6325,-2.20275
-26.027,-28.6279,-2.19428
-26.0272,-28.6163,-2.18459
-26.025,-28.6073,-2.17867
-26.0295,-28.6085,-2.17557
-26.0308,-28.6068,-2.17421
-26.0286,-28.6003,-2.16656
-26.023,-28.5933,-2.1671
-26.0212,-28.5943,-2.16965
-26.0198,-28.5964,-2.17361
-26.0147,-28.5959,-2.17744
-26.0165,-28.5967,-2.17298
-26.016,-28.5957,-2.17416
-26.0062,-28.5863,-2.17466
-26.0023,-28.579,-2.1712
-26.001,-28.5756,-2.17015
-25.9983,-28.5749,-2.17116
-26.0001,-28.579,-2.17471
-26.0084,-28.5839,-2.17188
-26.0158,-28.5945,-2.17188
-26.0196,-28.6005,-2.17653
-26.0272,-28.6059,-2.17471
-26.0288,-28.6068,-2.17339
-26.0304,-28.6054,-2.17002
-26.033,-28.6049,-2.16455
-26.0337,-28.6047,-2.16556
-26.0364,-28.6056,-2.16729
-26.0411,-28.6059,-2.16128
-26.0431,-28.6049,-2.15763
-26.0393,-28.5947,-2.15281
-26.0295,-28.579,-2.14407
-26.0252,-28.5679,-2.13856
-26.0257,-28.5652,-2.13642
-26.0209,-28.5616,-2.1351
-26.0243,-28.5662,-2.13733
-26.029,-28.5676,-2.13519
-26.0299,-28.5674,-2.13383
-26.0335,-28.5684,-2.13023
-26.0357,-28.572,-2.13046
-26.0353,-28.5722,-2.13301
-26.038,-28.5764,-2.13492
-26.0474,-28.5851,-2.13287
-26.0487,-28.5831,-2.12923
-26.049,-28.5805,-2.12686
-26.0512,-28.5812,-2.12495
-26.0537,-28.579,-2.12226
-26.0525,-28.5771,-2.12058
-26.0546,-28.5761,-2.1168
-26.0534,-28.573,-2.11826
-26.0528,-28.571,-2.11539
-26.0476,-28.5669,-2.11439
-26.0395,-28.5539,-2.11193
-26.0402,-28.5517,-2.10783
-26.0344,-28.5427,-2.10296
-26.0313,-28.5343,-2.09895
-26.031,-28.5306,-2.09458
-26.036,-28.5326,-2.09208
-26.0431,-28.535,-2.08844
-26.044,-28.5316,-2.08411
-26.0507,-28.5367,-2.08311
-26.0534,-28.5396,-2.07983
-26.0626,-28.5386,-2.07214
-26.0682,-28.5415,-2.07036
-26.0781,-28.5464,-2.06613
-26.0875,-28.5526,-2.0644
-26.0873,-28.5514,-2.06126
-26.0893,-28.5548,-2.06076
-26.0958,-28.5594,-2.0598
-26.0967,-28.5572,-2.05675
-26.1012,-28.5609,-2.0552
-26.1012,-28.557,-2.05275
-26.0911,-28.5478,-2.05334
-26.0866,-28.5439,-2.05375
-26.0929,-28.5543,-2.05652
-26.1027,-28.5655,-2.05812
-26.1121,-28.5718,-2.05662
-26.1168,-28.5759,-2.05625
-26.1198,-28.5809,-2.05566
-26.1133,-28.5766,-2.05921
-26.1144,-28.5778,-2.05789
-26.1213,-28.588,-2.06085
-26.1319,-28.5964,-2.06481
-26.1375,-28.6059,-2.06517
-26.1435,-28.6112,-2.06408
-26.1578,-28.6291,-2.06777
-26.1623,-28.6359,-2.06759
-26.1758,-28.6419,-2.06445
-26.1794,-28.6463,-2.06053
-26.182,-28.6487,-2.0629
-26.1816,-28.6499,-2.06372
-26.1764,-28.6446,-2.06367
-26.1747,-28.6467,-2.06727
-26.1717,-28.6453,-2.0685
-26.1673,-28.6419,-2.07059
-26.1601,-28.6402,-2.07619
-26.1509,-28.6349,-2.07974
-26.1453,-28.6349,-2.08812
-26.1397,-28.6293,-2.08666
-26.1341,-28.6264,-2.0873
-26.1269,-28.6245,-2.09267
-26.1213,-28.6233,-2.09595
-26.1195,-28.6269,-2.10455
-26.1164,-28.6298,-2.10765
-26.1106,-28.6257,-2.11011
-26.1005,-28.6177,-2.11452
-26.0902,-28.6114,-2.11707
-26.0826,-28.6088,-2.12172
-26.0772,-28.6047,-2.12254
-26.0732,-28.603,-2.126
-26.0676,-28.6039,-2.13301
-26.0691,-28.6059,-2.13255
-26.0669,-28.6071,-2.13897
-26.0687,-28.6097,-2.13688
-26.0637,-28.6013,-2.13269
-26.0622,-28.6015,-2.13428
-26.0667,-28.6059,-2.13465
-26.0653,-28.6003,-2.13005
-26.0687,-28.5986,-2.12376
-26.0669,-28.5969,-2.12814
-26.0642,-28.5955,-2.12795
-26.0577,-28.5945,-2.13105
-26.0534,-28.5875,-2.13078
-26.0454,-28.5766,-2.12449
-26.0427,-28.5647,-2.11721
-26.0391,-28.5514,-2.10942
-26.0386,-28.5418,-2.10228
-26.0333,-28.5321,-2.09422
-26.0353,-28.5251,-2.07911
-26.0351,-28.5144,-2.07687
-26.0413,-28.5103,-2.0664
-26.0474,-28.506,-2.05502
-26.0436,-28.49,-2.04291
-26.0425,-28.4801,-2.03435
-26.0364,-28.4656,-2.02361
-26.0378,-28.4573,-2.01574
-26.0454,-28.4547,-2.00545
-26.049,-28.4506,-1.99634
-26.0541,-28.4455,-1.98337
-26.0628,-28.4426,-1.97513
-26.0696,-28.4385,-1.96233
-26.0734,-28.4322,-1.95637
-26.0808,-28.4329,-1.94922
-26.0832,-28.4276,-1.93935
-26.0886,-28.4256,-1.93334
-26.0974,-28.4247,-1.92177
-26.1047,-28.4256,-1.91476
-26.111,-28.4259,-1.90866
-26.1142,-28.4201,-1.89983
-26.1164,-28.4162,-1.89305
-26.1198,-28.4133,-1.89004
-26.1247,-28.4106,-1.88112
-26.1292,-28.4094,-1.87547
-26.1285,-28.4015,-1.86997
-26.1301,-28.4005,-1.86377
-26.1401,-28.4061,-1.86118
-26.1514,-28.4092,-1.85558
-26.1556,-28.4119,-1.85339
-26.154,-28.4046,-1.84547
-26.1572,-28.4053,-1.84169
-26.165,-28.409,-1.83783
-26.1747,-28.4126,-1.83596
-26.1789,-28.4177,-1.83314
-26.178,-28.4148,-1.83191
-26.178,-28.4138,-1.83259
-26.1832,-28.4167,-1.83031
-26.1816,-28.4106,-1.8249
-26.1897,-28.4177,-1.82221
-26.1885,-28.4152,-1.82185
-26.1859,-28.4068,-1.81638
-26.1901,-28.408,-1.8121
-26.1863,-28.3971,-1.8076
-26.176,-28.3848,-1.80568
-26.1684,-28.3756,-1.80286
-26.1531,-28.3589,-1.80131
-26.1455,-28.3507,-1.80095
-26.1359,-28.3422,-1.80059
-26.1366,-28.3415,-1.80059
-26.1276,-28.3328,-1.79899
-26.1238,-28.3308,-1.80423
-26.1135,-28.3209,-1.802
-26.1254,-28.3272,-1.79849
-26.1375,-28.3325,-1.7918
-26.1332,-28.3308,-1.79075
-26.1305,-28.3318,-1.79635
-26.1272,-28.3306,-1.7974
-26.131,-28.3344,-1.79854
-26.1307,-28.3349,-1.7989
-26.1294,-28.3388,-1.80323
-26.1177,-28.3291,-1.80737
-26.0978,-28.317,-1.81201
-26.0846,-28.3003,-1.8116
-26.0747,-28.2846,-1.80619
-26.0716,-28.2791,-1.80332
-26.0624,-28.2706,-1.80186
-26.0514,-28.2616,-1.8055
-26.0427,-28.2561,-1.80796
-26.04,-28.2549,-1.80901
-26.0434,-28.2582,-1.80978
-26.0413,-28.2599,-1.81543
-26.0369,-28.2643,-1.82212
-26.0328,-28.2645,-1.82699
-26.0339,-28.2708,-1.83036
-26.0337,-28.2696,-1.83031
-26.0257,-28.2643,-1.835
-26.0261,-28.265,-1.83587
-26.0245,-28.266,-1.83892
-26.0201,-28.2645,-1.8401
-26.016,-28.2602,-1.84024
-26.0102,-28.2546,-1.83864
-26.0071,-28.2544,-1.84074
-26.0055,-28.2539,-1.84379
-26.0028,-28.2522,-1.84424
-26.0037,-28.2491,-1.84124
-26.0055,-28.2464,-1.83555
-26.0028,-28.2399,-1.83163
-26.0064,-28.2387,-1.82735
-26.0111,-28.242,-1.82599
-26.0189,-28.2469,-1.82408
-26.0187,-28.2466,-1.82216
-26.0169,-28.2423,-1.81989
-26.0183,-28.2403,-1.81971
-26.0174,-28.2408,-1.81811
-26.0232,-28.2464,-1.82139
-26.0252,-28.25,-1.82148
-26.0252,-28.2534,-1.82394
-26.025,-28.2549,-1.82512
-26.0209,-28.2544,-1.82754
-26.023,-28.2529,-1.82408
-26.0245,-28.2505,-1.82212
-26.023,-28.2517,-1.82207
-26.0218,-28.2493,-1.82094
-26.0176,-28.2437,-1.82267
-26.0203,-28.2471,-1.82308
-26.0122,-28.2389,-1.8243
-26.0059,-28.2338,-1.82135
-26.0017,-28.2297,-1.82276
-25.9936,-28.2212,-1.82481
-25.9876,-28.2183,-1.82667
-25.9927,-28.2208,-1.82376
-25.9974,-28.2283,-1.82831
-25.9997,-28.2343,-1.83136
-26.0082,-28.242,-1.82927
-26.0138,-28.2481,-1.83127
-26.0183,-28.2595,-1.83582
-26.0257,-28.267,-1.83546
-26.0317,-28.2769,-1.84092
-26.0382,-28.2882,-1.84515
-26.0409,-28.2967,-1.84993
-26.0519,-28.3083,-1.85217
-26.0505,-28.3139,-1.85731
-26.0499,-28.3151,-1.86227
-26.0543,-28.3228,-1.86377
-26.0552,-28.3284,-1.86946
-26.0637,-28.3342,-1.86801
-26.0671,-28.341,-1.86919
-26.0716,-28.3502,-1.87374
-26.0776,-28.3582,-1.87461
-26.0808,-28.3598,-1.87725
-26.0761,-28.3598,-1.88171
-26.07,-28.3598,-1.88285
-26.0752,-28.3664,-1.88886
-26.0729,-28.3649,-1.88731
-26.0765,-28.3736,-1.89036
-26.085,-28.3857,-1.89664
-26.0904,-28.3903,-1.89482
-26.0942,-28.3971,-1.89837
-26.1052,-28.4111,-1.90147
-26.111,-28.4172,-1.90079
-26.1137,-28.4208,-1.90538
-26.1148,-28.4271,-1.90707
-26.1153,-28.4382,-1.91859
-26.118,-28.4419,-1.92205
-26.1274,-28.4585,-1.92564
-26.1272,-28.4627,-1.93106
-26.126,-28.4619,-1.93133
-26.1303,-28.4682,-1.93479
-26.1256,-28.4733,-1.94335
-26.1195,-28.4738,-1.95032
-26.1168,-28.4752,-1.95328
-26.1115,-28.4731,-1.95724
-26.1079,-28.4767,-1.96916
-26.1012,-28.4839,-1.98009
-26.1003,-28.4919,-1.98573
-26.1164,-28.5064,-1.98664
-26.1198,-28.5127,-1.98897
-26.1142,-28.511,-1.99434
-26.111,-28.5212,-2.00581
-26.109,-28.5294,-2.01414
-26.1106,-28.5413,-2.02812
-26.107,-28.5505,-2.03709
-26.0991,-28.549,-2.04865
-26.0873,-28.5478,-2.06103
-26.0734,-28.5548,-2.07733
-26.064,-28.5609,-2.09244
-26.0696,-28.5686,-2.09531
-26.0792,-28.5788,-2.09841
-26.0826,-28.5865,-2.10082
-26.0868,-28.5935,-2.10301
-26.085,-28.5926,-2.10419
-26.0725,-28.5839,-2.10669
-26.0723,-28.5805,-2.10419
-26.0644,-28.5766,-2.1071
-26.0676,-28.5778,-2.10797
-26.0745,-28.587,-2.10779
-26.0853,-28.5989,-2.11065
-26.1009,-28.618,-2.11339
-26.1215,-28.6412,-2.11644
-26.1283,-28.6516,-2.11785
-26.1395,-28.6649,-2.12071
-26.1491,-28.6746,-2.12199
-26.1516,-28.6809,-2.12445
-26.1596,-28.6862,-2.11949
-26.1729,-28.7009,-2.12263
-26.1865,-28.7152,-2.12258
-26.195,-28.7254,-2.12509
-26.1989,-28.7268,-2.12258
-26.1973,-28.7237,-2.12235
-26.1959,-28.7145,-2.11612
-26.1932,-28.7072,-2.10906
-26.1932,-28.7053,-2.10483
-26.1915,-28.6942,-2.10018
-26.1859,-28.6816,-2.09049
-26.1841,-28.675,-2.08798
-26.1997,-28.6893,-2.08557
-26.204,-28.6888,-2.07956
-26.1957,-28.6801,-2.07965
-26.1932,-28.677,-2.07883
-26.1926,-28.6719,-2.07469
-26.2024,-28.6806,-2.07496
-26.2172,-28.693,-2.0726
-26.2255,-28.7009,-2.07191
-26.2367,-28.706,-2.0654
-26.2428,-28.7125,-2.06344
-26.2486,-28.7167,-2.06563
-26.2593,-28.7237,-2.06108
-26.2656,-28.7304,-2.05871
-26.2645,-28.7205,-2.04997
-26.2697,-28.7191,-2.04583
-26.2674,-28.7159,-2.04237
-26.2721,-28.7128,-2.03768
-26.2791,-28.7133,-2.03053
-26.2822,-28.713,-2.02602
-26.2898,-28.7167,-2.01824
-26.2952,-28.7193,-2.0192
-26.2995,-28.7152,-2.01141
-26.3012,-28.7111,-2.00399
-26.3044,-28.7082,-1.99794
-26.3104,-28.7004,-1.98546
-26.3133,-28.6966,-1.97759
-26.3216,-28.6966,-1.9713
-26.3261,-28.6946,-1.96434
-26.3295,-28.6932,-1.95655
-26.3382,-28.6934,-1.94413
-26.3425,-28.6871,-1.93853
-26.3458,-28.6835,-1.93151
-26.3485,-28.6777,-1.92478
-26.3501,-28.668,-1.91567
-26.3508,-28.6603,-1.9072
-26.355,-28.6552,-1.8955
-26.3557,-28.6422,-1.88258
-26.3461,-28.6223,-1.87397
-26.3416,-28.6138,-1.86987
-26.342,-28.6066,-1.85749
-26.3422,-28.6008,-1.8528
-26.3425,-28.593,-1.84602
-26.3434,-28.5868,-1.83969
-26.3436,-28.5807,-1.83254
-26.3438,-28.5727,-1.82517
-26.3422,-28.564,-1.81761
-26.3454,-28.5606,-1.81147
-26.3523,-28.5611,-1.80614
-26.3552,-28.5594,-1.79767
-26.3591,-28.556,-1.78798
-26.3613,-28.5497,-1.77992
-26.3635,-28.5432,-1.77682
-26.3682,-28.534,-1.76171
-26.3725,-28.5285,-1.75137
-26.3707,-28.5173,-1.74131
-26.3673,-28.5072,-1.73499
-26.3602,-28.4946,-1.73007
-26.3631,-28.49,-1.72069
-26.3613,-28.4798,-1.71373
-26.3559,-28.4651,-1.70671
-26.3501,-28.4547,-1.69634
-26.3431,-28.4397,-1.69251
-26.3243,-28.4133,-1.68404
-26.3109,-28.3886,-1.67503
-26.2995,-28.3727,-1.66989
-26.2956,-28.364,-1.66224
-26.3046,-28.3601,-1.6504
-26.3053,-28.3557,-1.64425
-26.3064,-28.3524,-1.6407
-26.3082,-28.354,-1.64084
-26.3093,-28.3574,-1.64152
-26.3102,-28.3586,-1.64521
-26.308,-28.3603,-1.64758
-26.3091,-28.3596,-1.6479
-26.3051,-28.3536,-1.64735
-26.297,-28.3436,-1.64357
-26.2965,-28.3369,-1.63588
-26.2907,-28.3274,-1.63319
-26.2826,-28.3139,-1.62914
-26.2777,-28.3047,-1.62281
-26.2685,-28.2945,-1.61949
-26.2562,-28.2732,-1.61216
-26.2367,-28.2515,-1.6112
-26.2183,-28.2343,-1.61125
-26.2103,-28.2251,-1.60943
-26.2071,-28.2159,-1.6051
-26.2089,-28.2135,-1.60087
-26.2013,-28.2048,-1.59914
-26.1879,-28.1874,-1.59327
-26.178,-28.1743,-1.59022
-26.1807,-28.1721,-1.5848
-26.1747,-28.1627,-1.58216
-26.1729,-28.1615,-1.58348
-26.1717,-28.1586,-1.58207
-26.1664,-28.1506,-1.58043
-26.1641,-28.147,-1.57875
-26.1621,-28.1448,-1.57724
-26.1623,-28.1383,-1.56996
-26.1518,-28.1252,-1.567
-26.1475,-28.1155,-1.56113
-26.1484,-28.1112,-1.55653
-26.1507,-28.109,-1.55075
-26.1489,-28.0996,-1.54852
-26.1419,-28.0923,-1.54747
-26.1341,-28.0826,-1.54542
-26.1272,-28.0725,-1.54041
-26.1298,-28.0698,-1.53695
-26.1289,-28.0684,-1.53468
-26.1263,-28.0676,-1.53472
-26.1283,-28.0691,-1.53436
-26.1256,-28.0676,-1.53563
-26.1238,-28.0693,-1.54283
-26.1204,-28.0681,-1.54401
-26.1195,-28.0667,-1.54064
-26.1202,-28.0647,-1.53991
-26.1162,-28.0616,-1.5411
-26.1124,-28.0592,-1.54223
-26.1124,-28.0582,-1.54219
-26.103,-28.0567,-1.54788
-26.0978,-28.0577,-1.55421
-26.1,-28.0616,-1.55953
-26.0969,-28.0669,-1.56814
-26.094,-28.0688,-1.57142
-26.0924,-28.072,-1.57337
-26.0882,-28.0713,-1.57875
-26.0839,-28.0662,-1.57656
-26.0805,-28.0635,-1.57779
-26.0779,-28.0621,-1.57838
-26.0738,-28.0589,-1.58057
-26.0673,-28.0529,-1.58002
-26.0608,-28.0478,-1.58298
-26.0543,-28.0432,-1.58412
-26.051,-28.0415,-1.58562
-26.0481,-28.0386,-1.5863
-26.0348,-28.0243,-1.58507
-26.0073,-27.996,-1.58416
-25.9932,-27.981,-1.58234
-25.9925,-27.9784,-1.58289
-25.9945,-27.9818,-1.58416
-25.9918,-27.9815,-1.58557
-25.9992,-27.9893,-1.5843
-26.0048,-27.9948,-1.58644
-26.0185,-28.0081,-1.58931
-26.0198,-28.013,-1.58762
-26.0214,-28.0214,-1.59559
-26.025,-28.0345,-1.60356
-26.0274,-28.0415,-1.60797
-26.0257,-28.0459,-1.6148
-26.0272,-28.0505,-1.61908
-26.0216,-28.0507,-1.626
-26.0064,-28.0425,-1.63292
-25.9965,-28.0379,-1.63715
-25.9862,-28.0335,-1.64621
-25.9802,-28.0326,-1.64717
-25.9705,-28.0263,-1.65131
-25.9705,-28.0289,-1.65473
-25.9649,-28.0306,-1.65964
-25.9631,-28.0396,-1.67089
-25.9696,-28.0485,-1.67508
-25.9669,-28.0507,-1.67954
-25.9701,-28.0633,-1.68746
-25.971,-28.0657,-1.68969
-25.9672,-28.0625,-1.69165
-25.9636,-28.0652,-1.69624
-25.9589,-28.0655,-1.7002
-25.9497,-28.0611,-1.7059
-25.9434,-28.063,-1.71354
-25.9477,-28.0647,-1.71104
-25.9533,-28.0681,-1.71068
-25.9515,-28.0664,-1.70881
-25.9459,-28.0592,-1.71099
-25.9396,-28.0546,-1.71227
-25.9338,-28.0524,-1.71336
-25.9253,-28.0454,-1.71855
-25.9174,-28.0417,-1.71928
-25.9056,-28.0364,-1.72583
-25.8939,-28.0326,-1.7338
-25.893,-28.0359,-1.73599
-25.8944,-28.0374,-1.73753
-25.8959,-28.0425,-1.74391
-25.8917,-28.0439,-1.74687
-25.882,-28.0379,-1.75101
-25.8758,-28.0335,-1.75333
-25.8733,-28.033,-1.75643
-25.8832,-28.042,-1.75483
-25.8932,-28.0546,-1.75793
-25.8935,-28.0594,-1.76144
-25.9022,-28.0671,-1.76298
-25.9091,-28.0797,-1.76726
-25.9143,-28.0904,-1.77122
-25.921,-28.0974,-1.77318
-25.9304,-28.1095,-1.77273
-25.941,-28.1179,-1.77332
-25.9508,-28.13,-1.7765
-25.9683,-28.1482,-1.77523
-25.9732,-28.1571,-1.77851
-25.9717,-28.1639,-1.7857
-25.9782,-28.1726,-1.78957
-25.9802,-28.1796,-1.79685
-25.9788,-28.1874,-1.80505
-25.9844,-28.1985,-1.80855
-25.9855,-28.2062,-1.81643
-25.9858,-28.2111,-1.81971
-25.982,-28.2074,-1.82426
-25.9768,-28.207,-1.82672
-25.9829,-28.2166,-1.82972
-25.9826,-28.2208,-1.83318
-25.9916,-28.2316,-1.83341
-25.9967,-28.2382,-1.83864
-26.0044,-28.2495,-1.8437
-26.0102,-28.2597,-1.84434
-26.0176,-28.2696,-1.84848
-26.0214,-28.2798,-1.85308
-26.0268,-28.2868,-1.85708
-26.0326,-28.296,-1.86091
-26.0362,-28.3035,-1.86122
-26.0411,-28.3086,-1.86259
-26.0447,-28.3185,-1.87042
-26.0483,-28.3231,-1.86992
-26.0467,-28.3224,-1.87215
-26.0458,-28.3238,-1.87456
-26.0463,-28.3219,-1.87274
-26.0456,-28.3267,-1.87447
-26.0512,-28.3332,-1.87821
-26.053,-28.3388,-1.88462
-26.0546,-28.3444,-1.8844
-26.0579,-28.3514,-1.88754
-26.0595,-28.3562,-1.89428
-26.0615,-28.3628,-1.89733
-26.064,-28.3661,-1.89842
-26.0667,-28.3719,-1.90192
-26.0734,-28.3773,-1.90079
-26.0817,-28.3865,-1.89928
-26.0868,-28.3891,-1.90015
-26.087,-28.3976,-1.9113
-26.0884,-28.4082,-1.91567
-26.0942,-28.4218,-1.92382
-26.0982,-28.4351,-1.93274
-26.1018,-28.4479,-1.94026
-26.1094,-28.4585,-1.94608
-26.1023,-28.4668,-1.95933
-26.1043,-28.4743,-1.96493
-26.1144,-28.4883,-1.97098
-26.1227,-28.5006,-1.97185
-26.1294,-28.5115,-1.98496
-26.1379,-28.5272,-1.98628
-26.1428,-28.5379,-1.98787
-26.144,-28.5439,-1.99625
-26.1482,-28.557,-2.00449
-26.1608,-28.5812,-2.01328
-26.176,-28.608,-2.02621
-26.1899,-28.6337,-2.04
-26.2092,-28.6668,-2.05507
-26.2336,-28.7128,-2.072
-26.2564,-28.7549,-2.09891
-26.2775,-28.7967,-2.11844
-26.3015,-28.8463,-2.13774
-26.3225,-28.8916,-2.16578
-26.3331,-28.9274,-2.19009
-26.3443,-28.9574,-2.21113
-26.366,-28.9992,-2.22729
-26.3763,-29.0212,-2.24195
-26.3875,-29.0379,-2.244
-26.4039,-29.051,-2.24135
-26.4045,-29.0495,-2.23298
-26.4045,-29.0565,-2.2348
-26.4083,-29.0662,-2.25706
-26.405,-29.072,-2.26134
-26.3913,-29.0621,-2.26612
-26.3745,-29.0418,-2.2622
-26.3454,-28.9953,-2.24691
-26.297,-28.9264,-2.22647
-26.2446,-28.8437,-2.19237
-26.178,-28.722,-2.14197
-26.0906,-28.5628,-2.0573
-26.0003,-28.3867,-1.9144
-25.91,-28.2171,-1.90857
-25.8209,-28.0463,-1.8187
-25.735,-27.8652,-1.73125
-25.638,-27.6719,-1.62818
-25.5285,-27.4617,-1.53049
-25.4111,-27.2391,-1.41877
-25.3084,-27.01,-1.29941
-25.2123,-26.7892,-1.17144
-25.122,-26.5802,-1.05749
-25.0492,-26.4024,-0.907531
-24.9896,-26.2325,-0.834237
-24.9383,-26.0806,-0.741595
-24.9125,-25.9764,-0.656828
-24.8843,-25.8837,-0.594414
-24.8603,-25.7937,-0.528221
-24.852,-25.7204,-0.464623
-24.8614,-25.6914,-0.426929
-24.8567,-25.6413,-0.382315
-24.861,-25.6038,-0.338202
-24.8628,-25.5668,-0.299415
-24.8749,-25.5465,-0.26691
-24.889,-25.5279,-0.234816
-24.913,-25.5124,-0.195209
-24.9381,-25.4969,-0.156513
-24.9757,-25.5216,-0.139533
-25.0308,-25.5871,-0.152097
-25.0678,-25.6297,-0.155694
-25.103,-25.6728,-0.171445
-25.131,-25.7415,-0.197485
-25.1704,-25.8252,-0.274558
-25.2269,-25.9273,-0.335652
-25.2766,-26.0443,-0.352861
-25.319,-26.153,-0.434167
-25.3618,-26.2676,-0.498266
-25.4207,-26.4263,-0.603701
-25.485,-26.5918,-0.701305
-25.5464,-26.7558,-0.804327
-25.6051,-26.9046,-0.893692
-25.6468,-27.0153,-0.961524
-25.6788,-27.1104,-1.03159
-25.7149,-27.2106,-1.10884
-25.7651,-27.3439,-1.17248
-25.8215,-27.4909,-1.2654
-25.8529,-27.5727,-1.31361
-25.8693,-27.6109,-1.33701
-25.8814,-27.6409,-1.35272
-25.8941,-27.667,-1.36833
-25.9011,-27.6767,-1.37284
-25.9002,-27.6733,-1.36847
-25.9031,-27.6724,-1.36756
-25.9049,-27.676,-1.36733
-25.904,-27.6707,-1.36146
-25.8995,-27.6649,-1.36141
-25.8961,-27.6605,-1.36064
-25.9089,-27.6733,-1.35886
-25.9186,-27.684,-1.35804
-25.934,-27.6968,-1.35845
-25.9452,-27.7106,-1.36178
-25.945,-27.7152,-1.36492
-25.9522,-27.7292,-1.37261
-25.9627,-27.751,-1.38681
-25.9728,-27.7636,-1.38859
-25.9721,-27.7686,-1.38868
-25.9808,-27.7851,-1.39879
-25.9952,-27.8044,-1.40593
-25.9972,-27.8088,-1.40803
-26.005,-27.8199,-1.4119
-26.0109,-27.831,-1.41467
-26.0203,-27.8405,-1.41818
-26.0245,-27.8502,-1.41868
-26.0205,-27.8516,-1.43038
-26.0223,-27.8552,-1.43398
-26.0259,-27.8661,-1.43279
-26.0337,-27.8818,-1.44499
-26.0451,-27.9005,-1.45182
-26.0499,-27.9155,-1.46207
-26.0581,-27.937,-1.47499
-26.0696,-27.9609,-1.48715
-26.0814,-27.9871,-1.50154
-26.0888,-28.0115,-1.51701
-26.0985,-28.0347,-1.53267
-26.1007,-28.0507,-1.54952
-26.1012,-28.0577,-1.55166
-26.1009,-28.0669,-1.56227
-26.0922,-28.0674,-1.57342
-26.0817,-28.0705,-1.58298
-26.0835,-28.0737,-1.58758
-26.0848,-28.0841,-1.59363
-26.0857,-28.0889,-1.60001
-26.0837,-28.0954,-1.60588
-26.0835,-28.1003,-1.61198
-26.0866,-28.1117,-1.62545
-26.0938,-28.1233,-1.62568
-26.0931,-28.1315,-1.63292
-26.0944,-28.1446,-1.64366
-26.0974,-28.1588,-1.65609
-26.0965,-28.1746,-1.67166
-26.0989,-28.1866,-1.68427
-26.1043,-28.2058,-1.69529
-26.103,-28.2142,-1.70803
-26.096,-28.2176,-1.71464
-26.092,-28.2239,-1.73143
-26.0996,-28.2309,-1.72902
-26.0996,-28.2295,-1.72606
-26.0873,-28.2227,-1.73412
-26.0747,-28.2249,-1.74432
-26.0687,-28.2275,-1.7542
-26.0635,-28.2338,-1.76353
-26.0588,-28.2365,-1.77145
-26.0507,-28.2365,-1.77996
-26.0362,-28.2278,-1.7877
-26.0274,-28.228,-1.7979
-26.0227,-28.2299,-1.80368
-26.0308,-28.236,-1.80241
-26.0369,-28.2433,-1.80141
-26.044,-28.2537,-1.80532
-26.055,-28.2684,-1.8096
-26.0687,-28.2827,-1.80996
-26.0799,-28.2977,-1.81115
-26.0924,-28.3107,-1.81311
-26.1009,-28.3224,-1.81474
-26.1144,-28.3361,-1.81411
-26.131,-28.3545,-1.81529
-26.1433,-28.3669,-1.81752
-26.1619,-28.3855,-1.81716
-26.1823,-28.3988,-1.81365
-26.2038,-28.4143,-1.80655
-26.2183,-28.4247,-1.80345
-26.2293,-28.437,-1.80263
-26.2387,-28.4457,-1.80427
-26.2479,-28.4515,-1.80077
-26.2551,-28.4564,-1.79635
-26.2598,-28.4578,-1.79271
-26.2641,-28.4576,-1.78775
-26.2701,-28.4588,-1.78543
-26.273,-28.4627,-1.78552
-26.2784,-28.4682,-1.78552
-26.2853,-28.4706,-1.77996
-26.2882,-28.4726,-1.78005
-26.2977,-28.482,-1.77892
-26.3118,-28.4881,-1.77405
-26.321,-28.4987,-1.77204
-26.3261,-28.5047,-1.77682
-26.3299,-28.5084,-1.77527
-26.3333,-28.5144,-1.77505
-26.3317,-28.519,-1.78215
-26.3295,-28.5166,-1.78424
-26.3272,-28.521,-1.78784
-26.3272,-28.5263,-1.79426
-26.3252,-28.5287,-1.79817
-26.3261,-28.5355,-1.80673
-26.3243,-28.5376,-1.80887
-26.3183,-28.5331,-1.81124
-26.3142,-28.5268,-1.81051
-26.3109,-28.5253,-1.80851
-26.3093,-28.5256,-1.81543
-26.3073,-28.527,-1.81693
-26.3035,-28.5277,-1.82094
-26.3006,-28.5314,-1.82581
-26.2961,-28.528,-1.82827
-26.2889,-28.528,-1.83455
-26.2862,-28.5287,-1.83737
-26.2826,-28.526,-1.84156
-26.2777,-28.5241,-1.84725
-26.2638,-28.5142,-1.84538
-26.2374,-28.4929,-1.85144
-26.2136,-28.4731,-1.85394
-26.1973,-28.4602,-1.85881
-26.1836,-28.4535,-1.86519
-26.174,-28.4523,-1.87634
-26.1628,-28.4525,-1.88513
-26.167,-28.4598,-1.88585
-26.1713,-28.4689,-1.89232
-26.1715,-28.4786,-1.91112
-26.1661,-28.4832,-1.91344
-26.1668,-28.4939,-1.92405
-26.1561,-28.4985,-1.93784
-26.1493,-28.5064,-1.95487
-26.1406,-28.5144,-1.96948
-26.1298,-28.5222,-1.98705
-26.124,-28.5287,-2.00126
-26.1153,-28.536,-2.01851
-26.1213,-28.5558,-2.0293
-26.1256,-28.5708,-2.04819
-26.1272,-28.5817,-2.05138
-26.1292,-28.595,-2.06026
-26.1325,-28.6102,-2.07396
-26.1357,-28.6276,-2.08662
-26.139,-28.6402,-2.09595
-26.1433,-28.6511,-2.10437
-26.141,-28.6598,-2.11493
-26.1357,-28.6639,-2.1244
-26.1316,-28.6709,-2.13424
-26.1254,-28.6731,-2.14543
-26.124,-28.6792,-2.15367
-26.1191,-28.6852,-2.1605
-26.1126,-28.6828,-2.1646
-26.1153,-28.6755,-2.15882
-26.1074,-28.6676,-2.15768
-26.096,-28.6598,-2.15987
-26.0875,-28.6571,-2.16451
-26.0774,-28.6523,-2.17052
-26.0676,-28.6465,-2.17389
-26.0604,-28.6429,-2.17976
-26.0525,-28.6385,-2.18545
-26.0458,-28.6383,-2.18791
-26.0416,-28.639,-2.19114
-26.04,-28.6383,-2.19251
-26.0404,-28.6376,-2.1931
-26.0398,-28.6373,-2.1951
-26.0366,-28.6373,-2.19474
-26.0373,-28.6385,-2.19624
-26.0342,-28.6361,-2.19729
-26.029,-28.6313,-2.19551
-26.023,-28.6218,-2.19483
-26.0189,-28.6184,-2.19474
-26.0167,-28.6146,-2.19401
-26.0144,-28.61,-2.19164
-26.0084,-28.6042,-2.19192
-26.0035,-28.5957,-2.18814
-26.001,-28.5928,-2.18768
-25.995,-28.5853,-2.18736
-25.9878,-28.5788,-2.18536
-25.9831,-28.5735,-2.18381
-25.9808,-28.563,-2.17666
-25.9743,-28.5563,-2.17748
-25.973,-28.5497,-2.17371
-25.9676,-28.542,-2.16947
-25.9625,-28.5314,-2.16442
-25.9625,-28.528,-2.16196
-25.9649,-28.5243,-2.157
-25.9605,-28.521,-2.15427
-25.949,-28.5081,-2.15281
-25.9414,-28.4985,-2.15222
-25.9342,-28.4895,-2.14976
-25.93,-28.4803,-2.14489
-25.9302,-28.4789,-2.14402
-25.9311,-28.4735,-2.14166
-25.9289,-28.4726,-2.13961
-25.93,-28.474,-2.13965
-25.9271,-28.4735,-2.14134
-25.9282,-28.4709,-2.14024
-25.9275,-28.4677,-2.1356
-25.9259,-28.4598,-2.13114
-25.9224,-28.4556,-2.12827
-25.9177,-28.4552,-2.12827
-25.9141,-28.4539,-2.13647
-25.9152,-28.4523,-2.13319
-25.9112,-28.4455,-2.13027
-25.9067,-28.4344,-2.12445
-25.8937,-28.4128,-2.11616
-25.8811,-28.3971,-2.11202
-25.8755,-28.386,-2.10569
-25.8693,-28.3727,-2.09886
-25.863,-28.3596,-2.09404
-25.859,-28.3492,-2.08525
-25.8527,-28.3374,-2.08093
-25.8504,-28.3296,-2.07624
-25.8507,-28.3306,-2.0766
-25.8574,-28.3313,-2.0695
-25.8603,-28.3255,-2.06126
-25.8556,-28.3146,-2.05366
-25.8554,-28.3115,-2.05311
-25.863,-28.3187,-2.05261
-25.8735,-28.3332,-2.05448
-25.8872,-28.3444,-2.05443
-25.8928,-28.3449,-2.0481
-25.8939,-28.3485,-2.04874
-25.8917,-28.3451,-2.04874
-25.8935,-28.349,-2.05061
-25.8939,-28.3497,-2.05093
-25.8921,-28.3366,-2.03977
-25.8905,-28.3291,-2.03417
-25.8883,-28.3233,-2.03349
-25.8719,-28.3098,-2.03449
-25.8522,-28.289,-2.03039
-25.8424,-28.274,-2.02803
-25.843,-28.2708,-2.02461
-25.8495,-28.2699,-2.01687
-25.8619,-28.2691,-2.00435
-25.8751,-28.2745,-1.99393
-25.882,-28.2815,-1.99438
-25.8888,-28.289,-1.99443
-25.8952,-28.2948,-1.99265
-25.9,-28.2965,-1.99261
-25.9056,-28.302,-1.99243
-25.9123,-28.3095,-1.99211
-25.9233,-28.318,-1.99275
-25.9226,-28.3248,-1.9968
-25.9233,-28.326,-1.99912
-25.9259,-28.3236,-1.99316
-25.9248,-28.3146,-1.98496
-25.9201,-28.3032,-1.98
-25.9188,-28.2962,-1.97517
-25.9199,-28.2914,-1.96803
-25.9201,-28.2882,-1.96498
-25.9199,-28.2863,-1.9632
-25.9192,-28.2841,-1.96079
-25.9221,-28.2817,-1.95633
-25.919,-28.2807,-1.95737
-25.9219,-28.2807,-1.95551
-25.9188,-28.2764,-1.95441
-25.9159,-28.2723,-1.95114
-25.9147,-28.2699,-1.95091
-25.9172,-28.2706,-1.94827
-25.9165,-28.2699,-1.94786
-25.9141,-28.2691,-1.94768
-25.9159,-28.2641,-1.94476
-25.9161,-28.259,-1.94021
-25.9112,-28.2507,-1.93743
-25.9062,-28.2459,-1.93593
-25.906,-28.2457,-1.93493
-25.906,-28.2423,-1.93379
-25.9022,-28.237,-1.93115
-25.9033,-28.2336,-1.92628
-25.9053,-28.2292,-1.92186
-25.9065,-28.2237,-1.91636
-25.9047,-28.222,-1.91221
-25.9006,-28.2183,-1.91117
-25.9042,-28.213,-1.90611
-25.9033,-28.2094,-1.90088
-25.9013,-28.2062,-1.89687
-25.9067,-28.2065,-1.89473
-25.9022,-28.2033,-1.89569
-25.8973,-28.1987,-1.89769
-25.8937,-28.1963,-1.89764
-25.8894,-28.1927,-1.89942
-25.8861,-28.1954,-1.90151
-25.8845,-28.1917,-1.9042
-25.8769,-28.1929,-1.9118
-25.8782,-28.1963,-1.91308
-25.876,-28.1937,-1.91267
-25.8717,-28.1828,-1.90725
-25.8686,-28.176,-1.90238
-25.8731,-28.1772,-1.9006
-25.8764,-28.1758,-1.89651
-25.8733,-28.1721,-1.89532
-25.8719,-28.1673,-1.89123
-25.8634,-28.1559,-1.88954
-25.8616,-28.1542,-1.88877
-25.8641,-28.1535,-1.88503
-25.8708,-28.1547,-1.88103
-25.8811,-28.1605,-1.87657
-25.8861,-28.1641,-1.87352
-25.8921,-28.1675,-1.87097
-25.8984,-28.1736,-1.8722
-25.9065,-28.1825,-1.87256
-25.9154,-28.1915,-1.86878
-25.921,-28.1925,-1.86769
-25.919,-28.1963,-1.87238
-25.923,-28.2031,-1.87616
-25.9309,-28.2111,-1.87607
-25.9416,-28.2159,-1.87101
-25.9479,-28.2191,-1.86805
-25.9495,-28.2174,-1.86364
-25.9459,-28.2082,-1.86045
-25.9407,-28.2016,-1.85808
-25.943,-28.1999,-1.85476
-25.9466,-28.2033,-1.8518
-25.9499,-28.2055,-1.85126
-25.9524,-28.2062,-1.84912
-25.9553,-28.2094,-1.85212
-25.9551,-28.2082,-1.84971
-25.9627,-28.2116,-1.84506
-25.9551,-28.2024,-1.84329
-25.9394,-28.1847,-1.84147
-25.9347,-28.1791,-1.84283
-25.9342,-28.1842,-1.8467
-25.9425,-28.1905,-1.84647
-25.9537,-28.2048,-1.84552
-25.9631,-28.2125,-1.84534
-25.9643,-28.2096,-1.8427
-25.9587,-28.2014,-1.84097
-25.9605,-28.1995,-1.83669
-25.9596,-28.2038,-1.83919
-25.9613,-28.206,-1.84365
-25.9647,-28.2169,-1.84752
-25.9669,-28.2244,-1.85435
-25.9609,-28.229,-1.86409
-25.9551,-28.2297,-1.87174
-25.9401,-28.2251,-1.88121
-25.9226,-28.2154,-1.89027
-25.9112,-28.2111,-1.89619
-25.8977,-28.199,-1.89541
-25.884,-28.1816,-1.89532
-25.8717,-28.1716,-1.89587
-25.8646,-28.1634,-1.89605
-25.8677,-28.1571,-1.88558
-25.8737,-28.1535,-1.8737
-25.8807,-28.1545,-1.86773
-25.8863,-28.1533,-1.86332
-25.8809,-28.1446,-1.85831
-25.8728,-28.1322,-1.85576
-25.8706,-28.1218,-1.84798
-25.8731,-28.1143,-1.83864
-25.8688,-28.1095,-1.8366
-25.8744,-28.1114,-1.83277
-25.8793,-28.1146,-1.83327
-25.8867,-28.1184,-1.82139
-25.8982,-28.123,-1.8172
-25.9065,-28.1223,-1.81429
-25.9026,-28.1208,-1.81229
-25.8993,-28.1172,-1.81083
-25.9002,-28.1085,-1.80655
-25.9071,-28.1066,-1.79745
-25.9136,-28.1068,-1.78848
-25.9206,-28.1039,-1.77896
-25.9208,-28.0933,-1.76949
-25.9177,-28.0802,-1.75092
-25.9201,-28.0688,-1.73954
-25.9224,-28.0621,-1.7384
-25.9242,-28.055,-1.72634
-25.9275,-28.0427,-1.71045
-25.9284,-28.0326,-1.69925
-25.9309,-28.0238,-1.68919
-25.9333,-28.0161,-1.67849
-25.9385,-28.0096,-1.66702
-25.9452,-28.0069,-1.65819
-25.9553,-28.003,-1.64161
-25.9611,-27.9999,-1.62595
-25.9685,-27.9929,-1.62295
-25.9759,-27.99,-1.6102
-25.9817,-27.9859,-1.60164
-25.9862,-27.9822,-1.59167
-25.9898,-27.9774,-1.58143
-25.9952,-27.9704,-1.57146
-26.0044,-27.9692,-1.56176
-26.0144,-27.967,-1.54947
-26.0227,-27.9626,-1.53727
-26.0297,-27.9624,-1.52525
-26.0315,-27.9593,-1.52066
-26.0346,-27.9561,-1.51624
-26.0337,-27.9515,-1.51205
-26.0283,-27.9435,-1.50836
-26.0286,-27.9351,-1.50281
-26.031,-27.9341,-1.49844
-26.0274,-27.9297,-1.49676
-26.025,-27.9208,-1.49111
-26.0243,-27.9167,-1.48824
-26.0259,-27.9145,-1.48387
-26.0292,-27.9167,-1.48273
-26.0322,-27.9167,-1.48005
-26.0322,-27.9179,-1.48214
-26.0288,-27.9174,-1.48128
-26.0268,-27.914,-1.47977
-26.0319,-27.9138,-1.47663
-26.0326,-27.9077,-1.47053
-26.0348,-27.9053,-1.46484
-26.0402,-27.9104,-1.46612
-26.0418,-27.9077,-1.46129
-26.0407,-27.9068,-1.45788
-26.0442,-27.9041,-1.45592
-26.0463,-27.9029,-1.45114
-26.0409,-27.8901,-1.44217
-26.0386,-27.8821,-1.43685
-26.0429,-27.8809,-1.4342
-26.0382,-27.8741,-1.43065
-26.0382,-27.8678,-1.42492
-26.027,-27.8531,-1.42164
-26.0136,-27.8356,-1.41754
-26.0084,-27.8277,-1.41618
-26.0015,-27.8139,-1.41172
-25.9885,-27.8064,-1.4134
-25.9795,-27.796,-1.41021
-25.9761,-27.7914,-1.41062
-25.9694,-27.7831,-1.41003
-25.9658,-27.7815,-1.41099
-25.9723,-27.7894,-1.41276
-25.9775,-27.794,-1.41126
-25.9838,-27.803,-1.41404
-25.9911,-27.8144,-1.41895
-25.9909,-27.8187,-1.42405
-25.9869,-27.8211,-1.42719
-25.9864,-27.8221,-1.43257
-25.9795,-27.819,-1.43434
-25.9746,-27.8192,-1.4404
-25.9703,-27.8158,-1.44222
-25.9634,-27.8122,-1.44509
-25.945,-27.7989,-1.45241
-25.9197,-27.7798,-1.45651
-25.9071,-27.7744,-1.46352
-25.8966,-27.7684,-1.46748
-25.8944,-27.7713,-1.47108
-25.9024,-27.7783,-1.47272
-25.9006,-27.7766,-1.47422
-25.8872,-27.7708,-1.47977
-25.8847,-27.7727,-1.4821
-25.8914,-27.781,-1.48401
-25.8979,-27.7914,-1.4907
-25.9098,-27.8015,-1.48506
-25.9244,-27.8088,-1.48219
-25.9277,-27.8144,-1.48424
-25.9298,-27.8265,-1.49029
-25.9331,-27.8398,-1.50199
-25.9318,-27.8429,-1.50691
-25.9237,-27.8417,-1.51629
-25.9159,-27.8424,-1.52289
-25.9145,-27.8448,-1.52849
-25.9098,-27.8487,-1.53495
-25.9006,-27.8473,-1.54392
-25.8966,-27.8502,-1.5507
-25.8993,-27.8504,-1.54788
-25.8979,-27.8487,-1.54911
-25.8961,-27.8485,-1.55125
-25.8919,-27.8475,-1.55166
-25.8937,-27.8487,-1.55393
-25.8914,-27.8506,-1.55603
-25.8872,-27.8489,-1.55689
-25.8856,-27.8477,-1.5583
-25.8823,-27.8456,-1.56017
-25.8825,-27.8492,-1.56186
-25.8807,-27.8509,-1.567
-25.878,-27.8521,-1.56823
-25.8775,-27.8545,-1.57101
-25.8778,-27.8555,-1.57369
-25.8825,-27.8598,-1.57574
-25.8852,-27.8664,-1.57588
-25.8879,-27.8729,-1.57929
-25.8923,-27.8758,-1.57984
-25.8941,-27.8826,-1.58412
-25.8997,-27.8913,-1.58735
-25.9056,-27.8985,-1.58808
-25.9107,-27.9034,-1.58881
-25.9138,-27.9089,-1.59031
-25.9049,-27.8997,-1.59158
-25.8901,-27.8845,-1.58912
-25.8888,-27.8773,-1.58489
-25.8899,-27.8789,-1.5838
-25.8923,-27.885,-1.58726
-25.8979,-27.8906,-1.59076
-25.9082,-27.9012,-1.58994
-25.9186,-27.9135,-1.59623
-25.9219,-27.9254,-1.60214
-25.9273,-27.9372,-1.60474
-25.9345,-27.9542,-1.61712
-25.9351,-27.9704,-1.62814
-25.9432,-27.9834,-1.63642
-25.9526,-28.0004,-1.64316
-25.9622,-28.0178,-1.64954
-25.9685,-28.0289,-1.65787
-25.9703,-28.0391,-1.66419
-25.9685,-28.0434,-1.67234
-25.9661,-28.0459,-1.67885
-25.9752,-28.0575,-1.67562
-25.9779,-28.063,-1.68177
-25.9768,-28.0669,-1.68555
-25.9811,-28.0754,-1.68814
-25.984,-28.0819,-1.69579
-25.977,-28.0841,-1.70203
-25.9743,-28.0872,-1.70917
-25.9743,-28.0957,-1.71313
-25.9755,-28.1037,-1.7242
-25.9797,-28.1129,-1.7308
-25.9871,-28.1233,-1.73244
-25.9918,-28.1349,-1.73863
-25.9956,-28.145,-1.74509
-25.9974,-28.1533,-1.74978
-26.0032,-28.1588,-1.75201
-26.0044,-28.1651,-1.75898
-26.0028,-28.1683,-1.76066
-26.0084,-28.1755,-1.76248
-26.0048,-28.176,-1.7669
-25.9959,-28.1712,-1.774
-25.9943,-28.1731,-1.77464
-25.9963,-28.1796,-1.77796
-25.9887,-28.1813,-1.78497
-25.9851,-28.1808,-1.7913
-25.9833,-28.1845,-1.79549
-25.984,-28.1912,-1.80345
-25.9831,-28.1944,-1.80942
-25.984,-28.2033,-1.81456
-25.9871,-28.2089,-1.81752
-25.9905,-28.2176,-1.82631
-25.9947,-28.2307,-1.82977
-26.0021,-28.2408,-1.8325
-26.0136,-28.2573,-1.8401
-26.0203,-28.2691,-1.84525
-26.0261,-28.281,-1.8513
-26.0317,-28.2924,-1.85717
-26.0344,-28.2999,-1.8615
-26.0384,-28.3105,-1.86801
-26.0411,-28.3199,-1.87456
-26.0438,-28.3277,-1.88289
-26.0402,-28.3313,-1.88881
-26.0418,-28.3359,-1.88972
-26.0465,-28.3458,-1.89619
-26.0474,-28.3533,-1.90038
-26.046,-28.3577,-1.90707
-26.0505,-28.3664,-1.91167
-26.0514,-28.3705,-1.91449
-26.0572,-28.3775,-1.9184
-26.0617,-28.384,-1.91895
-26.0718,-28.3896,-1.91422
-26.0772,-28.3976,-1.91695
-26.0801,-28.4046,-1.91658
-26.0817,-28.408,-1.92364
-26.0877,-28.4138,-1.92095
-26.0909,-28.4189,-1.92223
-26.0911,-28.4191,-1.92455
-26.09,-28.4203,-1.9261
-26.0877,-28.4215,-1.92837
-26.0947,-28.4249,-1.92614
-26.0879,-28.4194,-1.92828
-26.0859,-28.4196,-1.93115
-26.085,-28.4208,-1.93475
-26.0799,-28.4186,-1.93675
-26.0776,-28.4184,-1.93529
-26.0727,-28.4152,-1.9408
-26.0758,-28.4213,-1.94235
-26.0785,-28.4322,-1.94886
-26.0835,-28.4382,-1.95391
-26.0837,-28.4452,-1.95778
-26.0823,-28.4472,-1.9596
-26.0879,-28.4506,-1.95796
-26.0915,-28.4578,-1.96179
-26.0962,-28.4631,-1.96147
-26.1079,-28.4735,-1.96243
-26.1054,-28.4675,-1.95837
-26.1045,-28.4614,-1.95391
-26.1077,-28.4648,-1.952
-26.1168,-28.4714,-1.94972
-26.1247,-28.4808,-1.95104
-26.1307,-28.4847,-1.94995
-26.1399,-28.4905,-1.94554
-26.1457,-28.4917,-1.93962
-26.1516,-28.4943,-1.93871
-26.1529,-28.4943,-1.93812
-26.1525,-28.4929,-1.93634
-26.1514,-28.4914,-1.93716
-26.1511,-28.489,-1.93343
-26.1509,-28.4864,-1.93065
-26.1502,-28.4854,-1.92755
-26.1478,-28.4796,-1.9256
-26.1455,-28.4702,-1.92032
-26.1453,-28.4636,-1.91071
-26.1473,-28.4598,-1.90843
-26.1471,-28.4535,-1.90265
-26.1466,-28.4462,-1.89519
-26.1471,-28.4399,-1.89123
-26.1475,-28.4356,-1.8869
-26.1446,-28.4317,-1.88312
-26.1401,-28.4247,-1.87998
-26.1417,-28.4184,-1.87302
-26.1386,-28.4063,-1.86459
-26.1399,-28.407,-1.8615
-26.1401,-28.4041,-1.85858
-26.139,-28.3959,-1.85444
-26.1372,-28.3915,-1.85116
-26.1359,-28.3877,-1.84834
-26.1325,-28.3833,-1.8452
-26.1314,-28.378,-1.84338
-26.1276,-28.3724,-1.83896
-26.1265,-28.3657,-1.83505
-26.122,-28.3591,-1.83173
-26.1139,-28.3482,-1.82872
-26.0987,-28.3294,-1.82635
-26.0866,-28.3129,-1.82207
-26.0931,-28.3178,-1.81971
-26.0906,-28.3207,-1.82367
-26.0866,-28.3216,-1.82977
-26.0902,-28.3274,-1.83241
-26.0967,-28.3325,-1.83109
-26.1007,-28.3354,-1.82899
-26.1052,-28.3403,-1.83068
-26.1092,-28.3441,-1.82936
-26.1153,-28.3521,-1.83127
-26.1251,-28.3596,-1.83077
-26.1325,-28.362,-1.82613
-26.1305,-28.3562,-1.82216
-26.1267,-28.3497,-1.81716
-26.1182,-28.3332,-1.81024
-26.1032,-28.3149,-1.80573
-26.0991,-28.3057,-1.80291
-26.1016,-28.302,-1.79717
-26.1021,-28.2986,-1.79207
-26.0998,-28.2926,-1.78925
-26.0947,-28.2875,-1.78775
-26.0917,-28.2839,-1.78788
-26.0926,-28.2824,-1.78406
-26.0949,-28.2815,-1.78087
-26.0924,-28.2754,-1.77842
-26.0875,-28.2699,-1.77705
-26.0823,-28.2619,-1.77573
-26.0767,-28.2553,-1.7735
-26.0772,-28.2522,-1.77113
-26.0743,-28.2462,-1.7674
-26.0725,-28.2464,-1.7704
-26.066,-28.2399,-1.76776
-26.0584,-28.2278,-1.7669
-26.0507,-28.2157,-1.7618
-26.044,-28.2038,-1.75675
-26.033,-28.19,-1.75151
-26.0272,-28.1801,-1.7486
-26.025,-28.1748,-1.74354
-26.0288,-28.1724,-1.73826
-26.033,-28.1656,-1.72916
-26.0225,-28.1562,-1.72706
-26.0151,-28.1462,-1.72638
-26.0059,-28.1363,-1.72492
-25.9956,-28.125,-1.72515
-25.9907,-28.1184,-1.7247
-25.9844,-28.1107,-1.72256
-25.9829,-28.11,-1.72342
-25.9784,-28.11,-1.72506
-25.9721,-28.1049,-1.72866
-25.973,-28.1027,-1.72315
-25.9717,-28.0976,-1.71937
-25.9625,-28.0821,-1.71477
-25.9613,-28.0715,-1.70312
-25.9699,-28.0667,-1.69087
-25.9721,-28.0572,-1.68231
-25.9714,-28.0567,-1.6819
-25.9683,-28.0565,-1.68236
-25.9607,-28.0546,-1.68891
-25.9484,-28.0463,-1.69515
-25.9365,-28.0364,-1.69761
-25.9266,-28.0301,-1.70289
-25.9181,-28.0275,-1.70376
-25.9065,-28.0229,-1.71122
-25.902,-28.0192,-1.714
-25.904,-28.0222,-1.71495
-25.9038,-28.0253,-1.71486
-25.9067,-28.0304,-1.71873
-25.9073,-28.0316,-1.72033
-25.9029,-28.028,-1.72087
-25.9026,-28.0284,-1.72142
-25.8917,-28.0185,-1.72019
-25.8861,-28.0139,-1.72078
-25.8838,-28.0088,-1.72169
-25.88,-28.0052,-1.72055
-25.8805,-28.0064,-1.7226
-25.8809,-28.0088,-1.72338
-25.8807,-28.0069,-1.72165
-25.8796,-28.0069,-1.72269
-25.8796,-28.0011,-1.71928
-25.8684,-27.9919,-1.72024
-25.8587,-27.9815,-1.7201
-25.8448,-27.9711,-1.72124
-25.8399,-27.9689,-1.72515
-25.843,-27.9733,-1.72447
-25.8455,-27.9798,-1.73052
-25.8493,-27.9849,-1.73244
-25.8529,-27.9938,-1.7369
-25.8576,-28.0045,-1.74113
-25.8657,-28.0154,-1.74536
-25.8753,-28.0294,-1.74732
-25.8843,-28.0417,-1.75611
-25.8914,-28.0548,-1.75902
-25.8986,-28.0662,-1.76134
-25.8955,-28.07,-1.77145
-25.8919,-28.0727,-1.77591
-25.8988,-28.0829,-1.78001
-25.9,-28.0875,-1.78215
-25.9015,-28.0906,-1.78424
-25.9024,-28.0971,-1.78952
-25.9029,-28.0979,-1.78971
-25.9065,-28.0996,-1.7903
-25.9013,-28.0923,-1.78843
-25.8952,-28.0853,-1.78661
-25.8912,-28.086,-1.79153
-25.8905,-28.0865,-1.7913
-25.8896,-28.0899,-1.79672
-25.8946,-28.1005,-1.80204
-25.9026,-28.1136,-1.80655
-25.9118,-28.1267,-1.80855
-25.9221,-28.1404,-1.81379
-25.9318,-28.1559,-1.82198
-25.9376,-28.1671,-1.82781
-25.9434,-28.1818,-1.83414
-25.9461,-28.192,-1.83878
-25.9506,-28.1956,-1.83974
-25.9593,-28.2053,-1.84156
-25.9678,-28.2166,-1.84397
-25.9773,-28.2246,-1.84393
-25.9777,-28.2304,-1.84825
-25.9824,-28.2418,-1.85458
-25.9864,-28.2498,-1.8584
-25.9907,-28.2561,-1.86382
-25.9936,-28.2621,-1.86532
-25.9979,-28.2706,-1.86773
-25.9992,-28.2757,-1.87156
-25.9994,-28.2812,-1.87584
-26.0104,-28.296,-1.87875
-26.0176,-28.3086,-1.88754
-26.0252,-28.3207,-1.88845
-26.0371,-28.3371,-1.89714
-26.051,-28.3577,-1.89896
-26.0611,-28.377,-1.91913
-26.0781,-28.4046,-1.92765
-26.1009,-28.4428,-1.93456
-26.1249,-28.4842,-1.95642
-26.148,-28.5214,-1.96853
-26.1722,-28.5657,-1.99079
-26.2015,-28.6168,-2.01387
-26.2228,-28.6678,-2.04055
-26.2455,-28.7118,-2.06244
-26.2625,-28.7457,-2.07965
-26.2802,-28.7774,-2.09463
-26.2927,-28.7962,-2.09841
-26.3021,-28.8173,-2.11043
-26.3111,-28.8311,-2.11548
-26.3196,-28.841,-2.11584
-26.3261,-28.8553,-2.12559
-26.3277,-28.8703,-2.13633
-26.325,-28.8734,-2.14475
-26.3082,-28.8603,-2.14452
-26.2876,-28.8316,-2.14557
-26.2589,-28.7817,-2.11129
-26.2109,-28.7084,-2.04341
-26.1514,-28.6085,-2.0583
-26.0763,-28.4813,-1.99698
-25.9826,-28.3233,-1.93884
-25.882,-28.14,-1.85267
-25.7745,-27.9467,-1.76772
-25.6826,-27.7781,-1.68882
-25.5919,-27.608,-1.61353
-25.4794,-27.3932,-1.50663
-25.3613,-27.1728,-1.41281
-25.263,-26.9815,-1.26135
-25.1543,-26.7589,-1.19315
-25.062,-26.5528,-1.08758
-24.9784,-26.3624,-0.979278
-24.9085,-26.1921,-0.876575
-24.8563,-26.0458,-0.786391
-24.8177,-25.9275,-0.705585
-24.7902,-25.8382,-0.643899
-24.7741,-25.7775,-0.597783
-24.7588,-25.7071,-0.546294
-24.7691,-25.673,-0.485929
-24.781,-25.6486,-0.457294
-24.7799,-25.6072,-0.42488
-24.7745,-25.5642,-0.383043
-24.7678,-25.5247,-0.354363
-24.779,-25.5112,-0.325182
-24.7913,-25.4906,-0.296638
-24.805,-25.4599,-0.246288
-24.8258,-25.449,-0.222478
-24.8628,-25.4809,-0.20741
-24.9065,-25.5383,-0.249201
-24.9448,-25.5809,-0.262176
-24.9715,-25.6179,-0.234497
-25.0044,-25.6996,-0.295454
-25.053,-25.7942,-0.335061
-25.1124,-25.9074,-0.393787
-25.159,-26.0223,-0.458113
-25.209,-26.143,-0.52986
-25.2708,-26.2966,-0.622776
-25.3436,-26.4677,-0.717694
-25.4193,-26.6467,-0.83014
-25.4937,-26.8284,-0.964574
-25.5623,-26.9822,-1.01128
-25.6165,-27.1107,-1.09368
-25.6562,-27.2181,-1.15468
-25.7048,-27.3388,-1.23012
-25.7572,-27.4866,-1.32458
-25.8016,-27.6308,-1.42451
-25.8249,-27.705,-1.47372
-25.8435,-27.7563,-1.50882
-25.8558,-27.7906,-1.53254
-25.8569,-27.8023,-1.54151
-25.8578,-27.7986,-1.53632
-25.8612,-27.7969,-1.53094
-25.8601,-27.7943,-1.52726
-25.8614,-27.788,-1.52348
-25.8592,-27.7807,-1.51824
-25.8621,-27.7802,-1.51346
-25.8717,-27.7914,-1.51392
-25.8852,-27.8144,-1.52457
-25.8977,-27.8335,-1.53104
-25.9085,-27.855,-1.5462
-25.9141,-27.8719,-1.55498
-25.9277,-27.8947,-1.5634
-25.9385,-27.9155,-1.57173
-25.9441,-27.9278,-1.57706
-25.9461,-27.9363,-1.58393
-25.9459,-27.9421,-1.59154
-25.9439,-27.9411,-1.59372
-25.9421,-27.9428,-1.59559
-25.9425,-27.9472,-1.59905
-25.941,-27.9508,-1.60324
-25.9452,-27.953,-1.60743
-25.9459,-27.9585,-1.60897
-25.9508,-27.9709,-1.61535
-25.9611,-27.9827,-1.61817
-25.9728,-27.9968,-1.62086
-25.9808,-28.0103,-1.62432
-25.9923,-28.028,-1.629
-26.0064,-28.0446,-1.63183
-26.0194,-28.0652,-1.63938
-26.0299,-28.0817,-1.64703
-26.044,-28.0991,-1.65582
-26.0541,-28.1141,-1.65691
-26.0689,-28.1361,-1.66251
-26.0835,-28.1542,-1.6667
-26.0859,-28.1617,-1.66884
-26.0949,-28.1736,-1.67271
-26.1068,-28.1951,-1.68268
-26.126,-28.2215,-1.6906
-26.1399,-28.244,-1.69843
-26.1545,-28.2677,-1.70763
-26.1666,-28.2919,-1.72743
-26.1717,-28.3144,-1.73726
-26.1751,-28.3371,-1.75497
-26.1803,-28.3557,-1.77031
-26.1789,-28.369,-1.78365
-26.1818,-28.3884,-1.80095
-26.1832,-28.4061,-1.81616
-26.18,-28.4136,-1.82808
-26.1832,-28.4206,-1.83236
-26.187,-28.4295,-1.83518
-26.1845,-28.437,-1.85795
-26.1767,-28.4448,-1.86555
-26.1706,-28.4506,-1.87679
-26.1446,-28.445,-1.89751
-26.1278,-28.4452,-1.91203
-26.1198,-28.4501,-1.92396
-26.1081,-28.4539,-1.94126
-26.0958,-28.4627,-1.96101
-26.083,-28.4692,-1.98164
-26.0714,-28.4697,-1.99311
-26.064,-28.4697,-2.00003
-26.0546,-28.4651,-2.00608
-26.0478,-28.4627,-2.01068
-26.0478,-28.4685,-2.01678
-26.0548,-28.4774,-2.01769
-26.0653,-28.4958,-2.02438
-26.0758,-28.5077,-2.02789
-26.0837,-28.5164,-2.0288
-26.0893,-28.5272,-2.03331
-26.1036,-28.5408,-2.03185
-26.1173,-28.5505,-2.02803
-26.1345,-28.5679,-2.0268
-26.1487,-28.5797,-2.02625
-26.1641,-28.5887,-2.01874
-26.1818,-28.5914,-2.0054
-26.191,-28.5943,-1.99807
-26.1989,-28.602,-1.99698
-26.2125,-28.6134,-1.9978
-26.2248,-28.6288,-1.99926
-26.2396,-28.6405,-1.99907
-26.2544,-28.6555,-1.99461
-26.2784,-28.6777,-1.99252
-26.2965,-28.6934,-1.99466
-26.3127,-28.7106,-1.99206
-26.3335,-28.7275,-1.98888
-26.3449,-28.7319,-1.98278
-26.3644,-28.7469,-1.97617
-26.3841,-28.7636,-1.97167
-26.4032,-28.7759,-1.96771
-26.4198,-28.7887,-1.96288
-26.4357,-28.7994,-1.95997
-26.45,-28.8093,-1.95227
-26.4632,-28.8154,-1.94786
-26.4715,-28.8204,-1.94513
-26.4836,-28.8289,-1.94076
-26.4917,-28.8357,-1.93853
-26.5025,-28.8439,-1.93375
-26.5114,-28.8461,-1.93033
-26.5177,-28.8516,-1.92783
-26.5262,-28.857,-1.92751
-26.5302,-28.8601,-1.92441
-26.5323,-28.8603,-1.92236
-26.5338,-28.8599,-1.92218
-26.5352,-28.8611,-1.92205
-26.534,-28.8625,-1.92387
-26.5331,-28.8625,-1.92186
-26.5311,-28.8565,-1.92264
-26.526,-28.8574,-1.92405
-26.5266,-28.8574,-1.92473
-26.5215,-28.8553,-1.93015
-26.5168,-28.8516,-1.93302
-26.5103,-28.8512,-1.93843
-26.5033,-28.8473,-1.94458
-26.498,-28.8473,-1.94253
-26.491,-28.8446,-1.94863
-26.483,-28.8432,-1.95369
-26.4803,-28.8408,-1.9576
-26.4677,-28.8386,-1.96425
-26.4543,-28.8304,-1.9724
-26.4469,-28.8306,-1.97818
-26.4402,-28.832,-1.98291
-26.4364,-28.8337,-1.99275
-26.4234,-28.8337,-2.01027
-26.4173,-28.8337,-2.01228
-26.4157,-28.8364,-2.01665
-26.409,-28.8412,-2.02716
-26.3989,-28.8405,-2.037
-26.3882,-28.8408,-2.04624
-26.3788,-28.8441,-2.06121
-26.3703,-28.8456,-2.07127
-26.3638,-28.8504,-2.08197
-26.3606,-28.8584,-2.09131
-26.3535,-28.8608,-2.11161
-26.3438,-28.8633,-2.11662
-26.336,-28.8688,-2.126
-26.3263,-28.8712,-2.14134
-26.3167,-28.8785,-2.15622
-26.314,-28.8877,-2.16797
-26.3068,-28.893,-2.18195
-26.3008,-28.9,-2.19606
-26.2923,-28.9109,-2.2124
-26.2898,-28.9148,-2.21827
-26.2853,-28.9174,-2.23057
-26.275,-28.9177,-2.24117
-26.2623,-28.9157,-2.24705
-26.2511,-28.9145,-2.25861
-26.2405,-28.916,-2.26708
-26.2383,-28.9177,-2.27532
-26.2378,-28.9218,-2.27996
-26.2316,-28.9271,-2.28952
-26.2284,-28.9305,-2.29662
-26.2264,-28.9358,-2.30359
-26.223,-28.939,-2.31296
-26.2125,-28.9346,-2.31911
-26.2076,-28.9334,-2.32107
-26.2036,-28.9356,-2.32867
-26.1973,-28.9373,-2.33468
-26.1935,-28.9395,-2.34037
-26.1939,-28.9453,-2.3467
-26.1968,-28.9513,-2.35193
-26.1997,-28.954,-2.34916
-26.2042,-28.9542,-2.34597
-26.2047,-28.9557,-2.34497
-26.2047,-28.9557,-2.34702
-26.2018,-28.9557,-2.34743
-26.202,-28.9593,-2.35148
-26.2009,-28.9624,-2.35685
-26.1984,-28.9632,-2.36145
-26.193,-28.9615,-2.36687
-26.1847,-28.9586,-2.36709
-26.1726,-28.953,-2.37483
-26.1664,-28.945,-2.37101
-26.1639,-28.9361,-2.36573
-26.1572,-28.9235,-2.35767
-26.1525,-28.9078,-2.3518
-26.1424,-28.893,-2.3477
-26.1408,-28.8833,-2.33914
-26.1422,-28.8787,-2.33245
-26.1422,-28.8761,-2.32794
-26.1464,-28.8753,-2.32284
-26.1455,-28.8693,-2.31984
-26.1455,-28.8628,-2.31228
-26.1498,-28.8606,-2.30523
-26.1489,-28.8507,-2.2958
-26.137,-28.8308,-2.28824
-26.1303,-28.8183,-2.28233
-26.1207,-28.7987,-2.27295
-26.1139,-28.7841,-2.26521
-26.1142,-28.7788,-2.25979
-26.1041,-28.7626,-2.25469
-26.0971,-28.7488,-2.24768
-26.0962,-28.7392,-2.23689
-26.0922,-28.7244,-2.22865
-26.0998,-28.7188,-2.21245
-26.1121,-28.7193,-2.19924
-26.113,-28.7167,-2.19938
-26.1157,-28.7152,-2.19524
-26.1184,-28.714,-2.1911
-26.1175,-28.7133,-2.19173
-26.1133,-28.7082,-2.18955
-26.1047,-28.6995,-2.1895
-26.1034,-28.6961,-2.18818
-26.0989,-28.6917,-2.18832
-26.096,-28.6879,-2.18764
-26.0985,-28.6811,-2.17398
-26.098,-28.6726,-2.17075
-26.1005,-28.6663,-2.16328
-26.1007,-28.6617,-2.15668
-26.0924,-28.6453,-2.14999
-26.0817,-28.6293,-2.14298
-26.0772,-28.6187,-2.13888
-26.0734,-28.6097,-2.13505
-26.0691,-28.6047,-2.13005
-26.072,-28.6005,-2.12563
-26.07,-28.595,-2.11366
-26.0714,-28.5882,-2.11056
-26.0707,-28.5783,-2.10378
-26.0749,-28.5756,-2.09577
-26.0774,-28.5725,-2.09158
-26.0828,-28.5708,-2.08502
-26.083,-28.5652,-2.07829
-26.0794,-28.5546,-2.07009
-26.0774,-28.5495,-2.06549
-26.0803,-28.5449,-2.06035
-26.0828,-28.5406,-2.05138
-26.0821,-28.5343,-2.04624
-26.0844,-28.5287,-2.04032
-26.0886,-28.5272,-2.03376
-26.0958,-28.5236,-2.02411
-26.103,-28.5166,-2.01246
-26.1054,-28.5137,-2.00431
-26.1018,-28.5033,-1.99935
-26.098,-28.498,-1.99352
-26.0976,-28.4922,-1.99047
-26.1007,-28.4888,-1.98273
-26.1007,-28.4839,-1.97599
-26.0989,-28.4774,-1.97599
-26.0974,-28.4735,-1.97007
-26.1018,-28.4733,-1.96671
-26.1101,-28.4769,-1.96274
-26.1159,-28.4823,-1.95883
-26.1229,-28.4844,-1.95696
-26.1289,-28.489,-1.95428
-26.1325,-28.4931,-1.95396
-26.1354,-28.4939,-1.95446
-26.1397,-28.4972,-1.95114
-26.141,-28.4985,-1.95218
-26.139,-28.5002,-1.95478
-26.1375,-28.4922,-1.95068
-26.1363,-28.4876,-1.94708
-26.1352,-28.4859,-1.94617
-26.1348,-28.4856,-1.94367
-26.133,-28.483,-1.94158
-26.1305,-28.4777,-1.93957
-26.1294,-28.4702,-1.93848
-26.1251,-28.4644,-1.93188
-26.122,-28.4573,-1.93206
-26.1168,-28.4518,-1.93029
-26.1115,-28.4445,-1.92769
-26.1119,-28.4426,-1.92628
-26.1094,-28.4394,-1.92478
-26.1124,-28.4385,-1.92223
-26.1099,-28.4373,-1.92287
-26.1088,-28.4327,-1.91813
-26.1124,-28.4317,-1.91431
-26.1151,-28.4266,-1.90584
-26.1168,-28.4167,-1.8951
-26.1157,-28.4114,-1.88968
-26.1135,-28.4061,-1.88613
-26.1086,-28.4005,-1.88585
-26.1023,-28.3973,-1.89045
-26.0969,-28.3959,-1.89387
-26.0976,-28.3971,-1.89305
-26.0924,-28.3882,-1.89164
-26.079,-28.3807,-1.89687
-26.0734,-28.3768,-1.89869
-26.072,-28.3765,-1.89792
-26.0749,-28.3739,-1.89505
-26.0785,-28.3756,-1.88981
-26.0758,-28.37,-1.88868
-26.0682,-28.363,-1.88927
-26.064,-28.3618,-1.89286
-26.0684,-28.3673,-1.89555
-26.0653,-28.3693,-1.89865
-26.0566,-28.3572,-1.8976
-26.053,-28.3526,-1.89632
-26.055,-28.3569,-1.89591
-26.059,-28.3611,-1.89783
-26.0631,-28.3676,-1.89965
-26.0682,-28.3698,-1.89796
-26.077,-28.379,-1.89514
-26.0808,-28.3826,-1.89678
-26.0821,-28.3836,-1.89678
-26.087,-28.3865,-1.89455
-26.0897,-28.384,-1.89022
-26.0882,-28.3828,-1.89054
-26.0879,-28.3804,-1.88526
-26.0882,-28.3734,-1.88367
-26.0837,-28.364,-1.87752
-26.0797,-28.3565,-1.87343
-26.0767,-28.3524,-1.87315
-26.0817,-28.3528,-1.86933
-26.0891,-28.3569,-1.86478
-26.1003,-28.3635,-1.86013
-26.1065,-28.3649,-1.85362
-26.1144,-28.3717,-1.85376
-26.118,-28.3768,-1.85426
-26.1218,-28.3811,-1.8533
-26.1294,-28.3896,-1.85522
-26.1406,-28.4029,-1.85772
-26.1574,-28.4169,-1.85567
-26.1673,-28.4213,-1.85044
-26.1708,-28.4264,-1.85085
-26.174,-28.4283,-1.84934
-26.1729,-28.4259,-1.84688
-26.1758,-28.4259,-1.84556
-26.1778,-28.4273,-1.84361
-26.1807,-28.4269,-1.84106
-26.1863,-28.4281,-1.83696
-26.1863,-28.4264,-1.83582
-26.1816,-28.4237,-1.83864
-26.182,-28.4172,-1.82931
-26.1908,-28.4119,-1.81861
-26.1897,-28.408,-1.81365
-26.1845,-28.4031,-1.81415
-26.1807,-28.4031,-1.81866
-26.1749,-28.3993,-1.8198
-26.1677,-28.3937,-1.82408
-26.1587,-28.386,-1.8249
-26.1491,-28.3804,-1.82827
-26.1341,-28.3724,-1.83386
-26.1224,-28.3644,-1.83987
-26.1151,-28.3603,-1.84069
-26.1097,-28.3533,-1.83924
-26.1083,-28.3514,-1.84037
-26.1003,-28.3465,-1.84201
-26.0917,-28.3429,-1.84579
-26.0897,-28.3441,-1.84953
-26.0772,-28.3371,-1.85558
-26.0608,-28.3238,-1.85872
-26.0458,-28.3103,-1.86009
-26.0362,-28.303,-1.86346
-26.0268,-28.2938,-1.86273
-26.0118,-28.2815,-1.864
-26.003,-28.2689,-1.86154
-25.9909,-28.2563,-1.85881
-25.9914,-28.2546,-1.85858
-25.9965,-28.2546,-1.84857
-26.0026,-28.2546,-1.84647
-26.0104,-28.2566,-1.84356
-26.0165,-28.2631,-1.84124
-26.0223,-28.267,-1.84101
-26.0248,-28.2672,-1.83619
-26.031,-28.2645,-1.82959
-26.0301,-28.2621,-1.82658
-26.0232,-28.2481,-1.81971
-26.0223,-28.2413,-1.81588
-26.0254,-28.2379,-1.80541
-26.0227,-28.2312,-1.801
-26.0236,-28.2258,-1.79767
-26.0283,-28.2229,-1.78971
-26.0324,-28.222,-1.78575
-26.044,-28.2203,-1.77395
-26.0523,-28.2191,-1.76162
-26.0528,-28.2074,-1.74987
-26.0534,-28.1958,-1.73904
-26.0543,-28.19,-1.73207
-26.0649,-28.1908,-1.72256
-26.0729,-28.1927,-1.7125
-26.0823,-28.1946,-1.70895
-26.0835,-28.1951,-1.70526
-26.0832,-28.1908,-1.70093
-26.0904,-28.192,-1.69638
-26.0929,-28.1879,-1.69215
-26.1018,-28.1847,-1.67872
-26.1112,-28.185,-1.66893
-26.1142,-28.1835,-1.66506
-26.1213,-28.1835,-1.65709
-26.124,-28.1808,-1.64808
-26.1256,-28.1808,-1.64985
-26.1314,-28.1808,-1.64608
-26.1339,-28.1825,-1.64289
-26.1386,-28.1833,-1.63947
-26.1435,-28.1825,-1.63469
-26.1493,-28.1859,-1.63028
-26.1552,-28.1876,-1.62855
-26.1648,-28.1895,-1.61963
-26.174,-28.1929,-1.61444
-26.1787,-28.1903,-1.60688
-26.1818,-28.1912,-1.60328
-26.1841,-28.1905,-1.60242
-26.1834,-28.1876,-1.59841
-26.1726,-28.1753,-1.59686
-26.1648,-28.1687,-1.59932
-26.165,-28.1663,-1.59604
-26.1661,-28.1649,-1.59204
-26.1713,-28.1586,-1.58161
-26.178,-28.153,-1.57369
-26.1827,-28.1537,-1.56163
-26.1908,-28.1501,-1.55434
-26.1973,-28.1511,-1.54902
-26.2029,-28.1482,-1.54005
-26.2074,-28.1455,-1.53568
-26.2123,-28.1417,-1.52557
-26.2179,-28.1385,-1.51665
-26.2183,-28.1315,-1.50918
-26.2181,-28.123,-1.49867
-26.2148,-28.1146,-1.49421
-26.2094,-28.102,-1.48765
-26.2094,-28.094,-1.47882
-26.2114,-28.0892,-1.47067
-26.2123,-28.0819,-1.46466
-26.2069,-28.0744,-1.46234
-26.2022,-28.0657,-1.45829
-26.1982,-28.0616,-1.4577
-26.1915,-28.056,-1.45906
-26.1892,-28.0529,-1.45961
-26.1856,-28.0531,-1.46193
-26.185,-28.0524,-1.46316
-26.1845,-28.0519,-1.46625
-26.1762,-28.0519,-1.47053
-26.1764,-28.0546,-1.47472
-26.172,-28.0563,-1.47773
-26.1684,-28.0536,-1.48069
-26.1639,-28.0526,-1.48506
-26.1608,-28.0536,-1.48756
-26.1547,-28.0519,-1.49298
-26.1482,-28.0526,-1.49935
-26.1449,-28.0534,-1.50267
-26.1415,-28.0524,-1.51073
-26.1357,-28.0507,-1.51192
-26.1303,-28.05,-1.5151
-26.1267,-28.0519,-1.52088
-26.1227,-28.0505,-1.52334
-26.1171,-28.0488,-1.52589
-26.111,-28.0456,-1.52908
-26.1072,-28.0459,-1.53377
-26.1023,-28.0442,-1.53714
-26.0976,-28.042,-1.54146
-26.0909,-28.0401,-1.54342
-26.0848,-28.0359,-1.54761
-26.0743,-28.0226,-1.54483
-26.0622,-28.0108,-1.5436
-26.0557,-28.0069,-1.54629
-26.0496,-28.0016,-1.54556
-26.049,-27.9989,-1.5467
-26.0487,-27.9955,-1.54328
-26.0465,-27.9955,-1.54369
-26.044,-27.996,-1.54688
-26.0442,-27.9975,-1.55006
-26.0458,-27.9999,-1.55125
-26.0472,-27.9989,-1.54565
-26.0472,-27.9982,-1.54701
-26.0465,-28.0028,-1.55079
-26.0478,-28.005,-1.55544
-26.0434,-28.0101,-1.56327
-26.0445,-28.0192,-1.56969
-26.0427,-28.0224,-1.5757
-26.0322,-28.0156,-1.57938
-26.0189,-28.0052,-1.58348
-26.0053,-27.9968,-1.58835
-26.0041,-27.9965,-1.58594
-26.0053,-27.9984,-1.59026
-26.0073,-28.0047,-1.59345
-26.0109,-28.0108,-1.59682
-26.0113,-28.0149,-1.59782
-26.0158,-28.0226,-1.60442
-26.0198,-28.0326,-1.61016
-26.0268,-28.0461,-1.61703
-26.0299,-28.0599,-1.62432
-26.029,-28.0664,-1.63378
-26.0355,-28.08,-1.64025
-26.0364,-28.0846,-1.64517
-26.0442,-28.0942,-1.64603
-26.0534,-28.1054,-1.64571
-26.0523,-28.1037,-1.64694
-26.0528,-28.109,-1.65095
-26.0615,-28.1213,-1.65404
-26.074,-28.1298,-1.65122
-26.0848,-28.1363,-1.64489
-26.0895,-28.1446,-1.65559
-26.09,-28.1499,-1.65768
-26.094,-28.1574,-1.65937
-26.0949,-28.17,-1.67048
-26.0982,-28.1791,-1.67844
-26.0931,-28.1837,-1.68486
-26.0888,-28.1891,-1.69524
-26.0801,-28.1929,-1.70963
-26.0747,-28.1997,-1.71973
-26.0754,-28.2074,-1.72788
-26.0776,-28.2152,-1.73175
-26.0801,-28.2203,-1.73781
-26.0904,-28.2336,-1.73995
-26.0965,-28.2433,-1.74468
-26.1032,-28.2551,-1.74691
-26.1103,-28.2648,-1.74923
-26.1153,-28.2757,-1.75388
-26.1233,-28.2868,-1.75816
-26.1307,-28.2979,-1.76462
-26.1345,-28.3042,-1.7643
-26.1354,-28.3103,-1.77172
-26.1361,-28.3139,-1.77614
-26.139,-28.3195,-1.77382
-26.1401,-28.3255,-1.78265
-26.1431,-28.332,-1.78524
-26.1426,-28.3354,-1.78916
-26.1366,-28.3364,-1.7943
-26.137,-28.3446,-1.80081
-26.1431,-28.3565,-1.80919
-26.1453,-28.3698,-1.8182
-26.1518,-28.3814,-1.82394
-26.15,-28.3908,-1.83773
-26.154,-28.4015,-1.84229
-26.1641,-28.4179,-1.8518
-26.1679,-28.4281,-1.85663
-26.1724,-28.439,-1.86077
-26.1715,-28.4494,-1.87019
-26.1722,-28.4573,-1.87848
-26.1753,-28.4689,-1.88777
-26.1834,-28.4859,-1.89723
-26.189,-28.4985,-1.9047
-26.1948,-28.5086,-1.91235
-26.2,-28.5195,-1.91599
-26.2011,-28.5268,-1.92022
-26.2024,-28.5347,-1.9276
-26.2036,-28.5408,-1.93138
-26.2114,-28.5464,-1.93038
-26.2154,-28.5534,-1.93047
-26.2186,-28.556,-1.93511
-26.217,-28.5577,-1.93525
-26.2197,-28.5626,-1.93534
-26.2278,-28.5684,-1.93548
-26.2273,-28.5722,-1.93784
-26.2372,-28.5785,-1.93648
-26.2549,-28.5892,-1.93111
-26.2654,-28.6015,-1.93256
-26.2761,-28.6158,-1.93502
-26.2874,-28.6272,-1.93548
-26.3006,-28.6448,-1.93975
-26.308,-28.6588,-1.94617
-26.3205,-28.6772,-1.95136
-26.3328,-28.6908,-1.95514
-26.3422,-28.7053,-1.95842
-26.349,-28.7188,-1.96406
-26.3537,-28.7237,-1.96525
-26.3624,-28.7312,-1.96293
-26.3678,-28.7324,-1.96001
-26.372,-28.7346,-1.95646
-26.3714,-28.7292,-1.95277
-26.3709,-28.7271,-1.95273
-26.3792,-28.735,-1.95095
-26.3884,-28.7401,-1.94713
-26.3976,-28.7421,-1.93953
-26.4007,-28.7428,-1.93784
-26.4023,-28.743,-1.93338
-26.405,-28.7408,-1.9317
-26.4068,-28.7406,-1.92751
-26.4113,-28.7425,-1.92778
-26.4133,-28.7392,-1.9215
-26.4115,-28.735,-1.91772
-26.4088,-28.7309,-1.91676
-26.4126,-28.7321,-1.91494
-26.4157,-28.7319,-1.90884
-26.4162,-28.7285,-1.90602
-26.4191,-28.7258,-1.90161
-26.4146,-28.7186,-1.89887
-26.4117,-28.7096,-1.89291
-26.4054,-28.7007,-1.88981
-26.4012,-28.6973,-1.88822
-26.3998,-28.6913,-1.88617
-26.3967,-28.6833,-1.88194
-26.3994,-28.6818,-1.87939
-26.3992,-28.6828,-1.87638
-26.4007,-28.6813,-1.87607
-26.4021,-28.6813,-1.87497
-26.4088,-28.6867,-1.87356
-26.4133,-28.6886,-1.87211
-26.4144,-28.6886,-1.86805
-26.4139,-28.6845,-1.86464
-26.4126,-28.6777,-1.85959
-26.4151,-28.6753,-1.85563
-26.4131,-28.6714,-1.85262
-26.4133,-28.6668,-1.84625
-26.407,-28.6579,-1.84288
-26.3978,-28.6424,-1.84142
-26.3924,-28.6366,-1.83965
-26.3859,-28.6259,-1.83437
-26.3799,-28.6129,-1.82708
-26.3752,-28.6025,-1.81939
-26.3776,-28.5938,-1.81352
-26.3774,-28.5899,-1.8081
-26.3797,-28.5865,-1.79999
-26.3812,-28.5841,-1.7984
-26.3828,-28.5807,-1.78957
-26.3868,-28.5793,-1.7887
-26.3864,-28.5747,-1.78247
-26.3897,-28.5725,-1.77741
-26.392,-28.5713,-1.77564
-26.3909,-28.5669,-1.77145
-26.3893,-28.5645,-1.77286
-26.3828,-28.5526,-1.7648
-26.3774,-28.5418,-1.76039
-26.3732,-28.5369,-1.75711
-26.3761,-28.5357,-1.75392
-26.3691,-28.526,-1.75438
-26.3608,-28.5188,-1.75483
-26.3537,-28.5074,-1.74974
-26.3508,-28.5004,-1.74678
-26.3438,-28.4934,-1.74318
-26.3409,-28.4881,-1.74268
-26.3389,-28.4873,-1.74309
-26.3371,-28.4813,-1.74113
-26.3333,-28.4755,-1.73858
-26.3279,-28.4697,-1.73612
-26.3241,-28.4648,-1.73489
-26.3185,-28.4627,-1.7364
-26.3176,-28.4552,-1.73262
-26.314,-28.451,-1.73007
-26.3095,-28.4409,-1.72816
-26.3012,-28.4312,-1.72465
-26.2945,-28.423,-1.72324
-26.2925,-28.4145,-1.71814
-26.282,-28.4019,-1.71418
-26.2788,-28.3947,-1.70876
-26.2768,-28.3867,-1.70325
-26.2768,-28.379,-1.69597
-26.2773,-28.3688,-1.68696
-26.2708,-28.3574,-1.68277
-26.2661,-28.348,-1.67963
-26.2571,-28.3424,-1.68231
-26.2486,-28.3383,-1.68568
-26.2405,-28.3308,-1.68696
-26.2273,-28.317,-1.687
-26.2163,-28.3093,-1.68864
-26.2029,-28.3028,-1.69451
-26.1966,-28.2996,-1.69788
-26.1973,-28.2984,-1.69547
-26.1975,-28.2984,-1.6962
-26.1997,-28.3003,-1.6957
-26.2015,-28.3032,-1.69515
-26.2056,-28.3052,-1.69561
-26.2103,-28.3081,-1.69256
-26.2087,-28.31,-1.69725
-26.2112,-28.3122,-1.69574
-26.2125,-28.311,-1.69461
-26.2065,-28.3066,-1.69602
-26.2002,-28.3025,-1.69674
-26.1966,-28.2982,-1.69711
-26.1921,-28.2914,-1.6941
-26.1868,-28.2856,-1.69552
-26.18,-28.2807,-1.69611
-26.1722,-28.2749,-1.69816
-26.1697,-28.2708,-1.69556
-26.1691,-28.266,-1.69023
-26.1697,-28.2609,-1.68641
-26.1673,-28.252,-1.67954
-26.165,-28.2449,-1.67553
-26.1659,-28.243,-1.66966
-26.1684,-28.2418,-1.66902
-26.1686,-28.243,-1.66943
-26.1677,-28.2396,-1.6677
-26.1686,-28.2379,-1.66775
-26.1677,-28.2374,-1.66847
-26.167,-28.2389,-1.66875
-26.1664,-28.2391,-1.66551
-26.1664,-28.2362,-1.66551
-26.1659,-28.2321,-1.66342
-26.1673,-28.2292,-1.65773
-26.1652,-28.2304,-1.66224
-26.1664,-28.2297,-1.65923
-26.1673,-28.2297,-1.65819
-26.1679,-28.228,-1.65632
-26.1677,-28.2249,-1.65523
-26.163,-28.2205,-1.65163
-26.161,-28.2159,-1.65076
-26.1554,-28.2101,-1.64908
-26.1522,-28.206,-1.64863
-26.1493,-28.2012,-1.64512
-26.1462,-28.1961,-1.64385
-26.1408,-28.19,-1.64462
-26.1368,-28.1852,-1.64398
-26.137,-28.1801,-1.63934
-26.1354,-28.1767,-1.63765
-26.1274,-28.1646,-1.63178
-26.1142,-28.1496,-1.62928
-26.107,-28.1366,-1.62418
-26.1014,-28.1271,-1.62063
-26.0962,-28.1175,-1.6173
-26.0902,-28.1141,-1.61721
-26.0868,-28.1114,-1.61885
