Lead1,Lead2,Lead3
0,0,0
1.64359e+06,1.91672e+06,6863.42
2.39064e+06,2.78716e+06,9930.89
1.96405e+06,2.2891e+06,8110.59
1.78029e+06,2.07423e+06,7327.8
1.52576e+06,1.77676e+06,6219.57
1.34928e+06,1.57061e+06,5445.67
1.15952e+06,1.34951e+06,4673.39
1.00975e+06,1.17539e+06,4094.06
864101,1.00627e+06,3515.71
742622,865103,3029.33
631539,735901,2598.14
535651,624393,2217.49
451252,526255,1882.38
377164,440333,1604.89
313011,365860,1353.36
258092,301759,1118.54
211097,246867,915.122
170827,199589,734.912
136369,159123,580.409
107072,124954,450.339
82537.2,96275.7,342.788
62311.7,72602.9,257.722
45749.2,53343.9,192.032
32352.2,37761.9,138.327
21790.3,25407.9,91.6002
13716.4,15981,56.9645
7803.58,9079.26,31.5473
3735.55,4335.4,13.9173
1243.11,1438.81,4.18021
120.271,133.421,0.125232
141.666,174.58,1.48416
1125.13,1335.25,6.39302
2880.25,3403.99,15.3247
5212.45,6149.38,27.3719
7983.7,9413.55,40.6967
11114.2,13130.8,58.3568
14533.9,17234.8,79.65
18168.1,21541.3,99.5513
21868.7,25943,119.944
25548.8,30363.1,142.606
29196.3,34742.9,167.325
32796.4,39045.6,188.053
36371.4,43216.9,200.679
39933.6,47322.4,211.803
43380.3,51324.4,226.838
46576.7,55138.7,245.592
49591.5,58711.6,261.924
52435.6,62050.6,276.78
55012.2,65051.9,287.309
57352.8,67717.9,294.331
59564.6,70267.4,306.043
61612.5,72720.8,318.382
63316.6,74884.5,333.214
64717.1,76716.6,350.744
65919.6,78232.7,363.626
66897.5,79466.7,376.243
67649.3,80462,385.021
68239.8,81183.3,385.622
68701.3,81700.5,387.494
69004.7,81949.7,382.257
69117.6,81898.8,375.741
69001.6,81648,370.845
68656.3,81188.3,358.13
68150.1,80584.5,353.524
67488.8,79834.9,354.779
66639.1,78827.1,353.371
65739.2,77739.1,345.896
64811,76616.5,335.708
63779.9,75345.4,326.664
62595.2,73973.4,319.075
61176,72431.4,319.596
59704.8,70789.2,320.496
58461.5,69323.7,315.206
57253.6,67817.5,303.809
55986.8,66161,286.166
54751.9,64585.5,272.399
53440.9,63011.3,264.872
51971.1,61289.1,260.473
50453.3,59485.5,252.717
49012.1,57711.6,239.723
47585.8,55885.6,221.989
46104.6,53956.4,203.022
44585.7,52072.7,189.782
43142.6,50313.5,178.953
41726.8,48479.3,164.819
40219.2,46539.6,147.749
38709.6,44679,134.962
37305.8,43047.3,130.402
35936.2,41567.2,129.128
34586,40043.6,126.45
33322.3,38541.1,120.599
32117.3,37105.1,114.565
31009.5,35805.6,109.826
29892,34518.5,103.057
28693,33079.9,96.9878
27525.9,31636.4,90.9687
26362,30306.9,85.6432
25257.7,29078.1,82.6006
24254.6,27929.8,80.5001
23248.4,26777,77.533
22220.5,25591.2,73.6861
21229.4,24453,70.7867
20272.6,23383.2,69.8243
19346.1,22320.2,67.3441
18438.3,21243.8,61.7376
17559.5,20223.1,57.266
16734.9,19253.3,54.5571
15921.2,18336.2,52.511
15149.1,17486.6,51.3579
14433,16685.9,51.0594
13748.1,15901.7,49.131
13115.1,15145.9,47.6049
12499.6,14425.3,46.8048
11864.6,13733.3,44.3827
11270.7,13074.2,42.7712
10705.3,12430.1,42.7365
10132.6,11798.7,42.2076
9632.88,11225,40.3709
9194.96,10682.7,36.5962
8684.96,10123.9,36.03
8143.7,9618.6,41.2351
7705.68,9183.26,44.6056
7348.5,8757,41.8899
6990.24,8310.84,38.6443
6617.04,7849.29,36.2101
6261.75,7394.66,32.5029
5923.72,6960.59,28.9043
5602.23,6550.15,25.0904
5301.62,6169.13,21.6837
5054.53,5845.9,18.0296
4865.79,5569.93,14.3743
4617.21,5260.06,12.7005
4288.09,4885.18,11.3711
3978.54,4496.81,9.19477
3677.66,4133.59,7.87705
3367.16,3785.07,7.16844
3083.34,3454.39,5.78613
2834.21,3158.79,4.44374
2619.39,2890.74,3.18838
2418.01,2637.12,2.15871
2221.62,2408.59,1.47862
2047.09,2216.61,1.17702
1890.34,2039.82,0.911709
1731.92,1856.01,0.473636
1592.58,1684.01,0.263359
1486.53,1540.7,0.0436635
1391.43,1418.93,0.029553
1299.83,1301.62,0.245123
1211.75,1201.25,0.44959
1128.15,1120.73,0.407858
1042.69,1033.17,0.485699
963.105,943.638,0.712505
893.935,858.479,1.16996
830.062,785.576,1.83666
774.14,727.794,2.00586
734.918,681.177,2.17517
703.839,644.343,2.39538
662.333,601.571,2.55282
611.764,537.462,3.64267
555.309,469.972,4.74896
498.597,415.642,5.26674
450.453,370.389,5.50799
407.815,329.145,5.588
381.223,305.412,5.99308
370.014,300.649,5.5189
344.168,284.701,4.13111
304.72,254.398,3.23178
272.54,232.51,2.47582
258.502,224.101,1.85182
251.533,220.418,1.60719
232.452,209.367,1.11897
202.236,181.85,0.971655
174.407,150.03,1.29799
154.303,125.384,2.43946
134.596,101.866,3.91931
111.592,75.0945,4.53616
93.2732,52.3084,6.28859
82.2407,36.2028,10.0329
69.6706,22.8318,13.8924
57.1951,13.018,16.5082
48.0685,6.79674,18.3267
36.8001,2.99019,19.535
26.9307,1.04032,19.4034
20.5221,0.175081,19.1141
15.1412,0.00784864,18.3571
12.5741,0.0688486,16.4138
12.0447,0.0899378,15.1979
11.2073,0.262262,14.622
10.203,0.484988,15.5556
10.9315,0.187475,14.7547
12.4683,0.0341451,11.3863
11.5805,0.098996,9.89518
10.0008,0.0342862,9.30717
10.7236,0.256604,8.60257
13.2251,1.10677,7.58215
13.0821,1.30583,6.04825
9.87592,0.825997,4.89209
6.99611,0.463075,3.8902
4.9678,0.183244,3.34804
3.29224,0.0334159,3.09876
1.7971,0.03832,2.7176
0.669387,0.448509,2.41497
0.0851325,1.78591,2.48379
0.12061,4.51238,2.8214
1.25206,8.79772,4.50674
4.71663,16.9446,4.81886
12.117,30.4529,4.34903
22.1651,48.9033,5.29486
34.218,70.8324,6.26978
45.408,94.6719,8.99524
52.3924,120.967,14.6153
59.8164,155.424,23.5951
70.6219,193.212,31.7128
79.0988,218.262,35.4295
85.7886,241.073,38.9405
90.5534,254.663,41.7597
92.4228,257.848,41.8992
96.6562,264.578,40.8791
100.91,257.173,34.8288
101.286,237.503,27.9577
95.9698,218.761,24.5451
80.5034,199.474,26.1922
56.7046,160.276,25.4065
30.8735,103.397,22.6214
8.25221,43.3931,7.64396
0.463407,2.85724,0.699098
23.1213,17.1645,0.325622
90.2271,126.377,2.19152
215.06,373.658,20.5668
395.044,805.257,69.2235
624.622,1452.2,170.166
885.754,2210.4,291.791
1178.46,3039.34,432.652
1585.3,4254.33,631.987
2039.06,5713.71,950.331
2423.53,6982.87,1304.56
2788.37,8336.92,1518.55
3147.99,9828.97,1815.79
3517.1,11302.6,2199.77
3872.71,12718,2530.84
4093.51,13676.5,2772.04
4092.37,13985.8,2908.68
3863.7,13790.8,3030.62
3482.65,13047.2,3017.06
3108.81,12107.4,2947.58
2715.45,11100.9,2907.13
2287.45,9988.97,2739.26
1916.07,8999.07,2575.93
1608.15,8165.08,2499.27
1332.33,7327.77,2381.99
1088.9,6479.94,2226.25
885.408,5705.12,2069.29
688.608,4972.75,1944.25
481.739,4211.24,1825.68
298.281,3389.99,1666.67
154.288,2523.04,1334.55
64.9439,1815.08,1107.08
21.0129,1238.47,934.843
0.726927,662.736,617.794
11.0281,250.414,367.346
56.8918,43.8195,202.882
141.145,8.62962,80.0852
267.759,182.121,8.70545
432.914,605.766,14.19
598.358,1219.37,106.187
786.302,2007.11,312.517
1039.26,3011.44,582.119
1310.55,4099.83,779.263
1543.34,5069.02,1004.81
1731.68,5925.3,1244.28
1905.54,6801.28,1490.74
2070.18,7716.65,1777.73
2233.43,8724.32,2117.89
2361.29,9528.97,2403.59
2378.07,9723.21,2479.37
2279.34,9389.12,2409.75
2144.47,8829.98,2274.29
2003.14,8188.9,2091.29
1814.4,7431.27,1893.81
1599.06,6631.07,1708.79
1404.01,5926.33,1549.71
1248.91,5350.51,1414.16
1141.71,4895.34,1299.69
1050.31,4523.66,1202.35
965.551,4174.72,1109.68
901.303,3877.74,1030.9
840.513,3616.79,965.979
776.932,3347.74,895.377
717.349,3077.97,819.956
651.393,2812.19,750.188
589.854,2557.33,683.589
539.191,2323.14,621.114
487.298,2106.76,563.546
444.152,1908.99,508.038
407.466,1733.29,457.186
367.461,1565.6,411.723
327.454,1400.09,372.449
292.629,1244.12,331.673
266.151,1123.4,293.96
247.812,1031.01,263.178
228.749,930.544,235.984
205.684,840.041,216.95
185.225,769.99,197.818
167.979,695.047,173.397
157.273,623.608,150.163
150.518,569.845,132.576
145.114,530.759,122.132
141.423,499.371,111.609
137.354,467.377,95.5747
133.271,433.834,85.314
129.344,406.927,78.3331
120.405,377.195,70.345
106.59,337.387,64.5834
98.7072,309.774,58.1611
91.484,281.969,50.8648
76.2685,240.786,45.4221
60.1633,205.997,44.6957
46.1726,178.277,45.0297
33.8114,150.744,40.7212
25.2319,127.304,37.9175
18.6108,108.799,37.8957
11.3935,91.0741,36.9896
5.49975,73.3582,37.4641
2.06018,57.9593,38.255
0.41806,46.2116,37.9697
0.000418071,37.0892,34.9527
0.450105,25.7087,31.3854
2.204,14.8571,30.134
4.9008,8.70617,27.117
7.20856,5.48001,24.683
10.5045,2.54413,23.498
16.8872,0.221504,20.6941
23.2846,0.256017,17.9858
26.4618,1.15893,15.8383
24.4546,1.41727,13.9722
21.4313,1.38778,12.206
20.1104,1.64677,10.601
18.6253,1.59409,9.61572
16.6209,1.7113,7.97328
14.6459,1.86137,6.29877
12.5299,1.72137,4.88501
9.24035,2.07009,2.59776
7.30655,2.90355,0.991534
6.80788,3.33401,0.463719
7.86987,5.09055,0.294517
10.407,8.72563,0.0649652
10.8203,11.2571,0.027622
8.85557,12.0411,0.309543
6.55953,11.389,0.90868
4.29517,10.0511,1.46076
2.21262,8.07442,1.97582
0.862617,6.39673,2.69646
0.0387814,5.1173,4.5351
0.344826,4.36668,7.39293
0.737162,5.53904,10.1555
0.455279,8.89957,13.4298
0.38971,12.1847,16.8797
0.894135,11.8286,18.8989
2.04898,9.10615,19.2993
3.82257,6.7748,20.4944
6.95454,4.34401,22.1495
9.80706,3.00848,23.1734
11.3838,2.59402,24.5416
13.7962,1.70954,24.3578
17.0801,0.650866,22.9568
20.9433,0.0502029,22.4351
23.337,0.0337515,21.0367
23.8794,0.194786,18.9943
25.0201,0.539934,16.8524
28.0524,1.48045,15.8675
28.9704,2.44942,14.9764
25.4666,2.18204,13.0023
21.5538,1.47733,12.0039
18.892,1.02493,11.505
15.0947,0.567915,10.3293
10.3759,0.125492,8.75812
6.58268,0.0121371,7.46396
3.03128,0.404013,5.69191
0.851204,1.2913,3.50625
0.0122719,3.28604,3.16286
0.490915,6.13185,2.99653
1.81281,8.1851,2.22371
3.6522,10.0813,1.65445
5.75441,11.9165,1.09735
8.8681,14.084,0.576595
12.0494,16.4925,0.24027
15.9422,18.6335,0.0869969
20.9877,21.468,0.0237605
25.6818,25.219,0.0467366
32.5382,30.9822,0.137597
40.9447,38.0408,0.0342467
49.3381,44.8468,0.0635111
58.7631,53.5763,0.108911
68.0066,60.6248,0.173781
76.4296,63.4358,0.453263
86.0029,66.1099,1.07022
96.2504,70.2449,1.81355
103.52,70.8108,2.73105
108.349,69.0794,4.8757
114.781,70.1314,6.88342
120.129,68.4983,7.45563
126.675,62.081,10.8029
134.277,58.5528,14.7735
134.879,57.7504,15.8556
129.78,52.9286,17.2151
125.241,48.7815,18.3477
124.861,48.5643,18.1139
126.366,49.0752,17.574
128.895,50.5944,17.8352
130.059,49.5072,19.7331
128.519,47.9732,19.5911
127.561,48.3782,18.3736
128.228,49.3724,17.8525
129.962,53.1785,16.2357
136.371,60.4937,14.3362
150.162,76.0464,12.4497
160.591,93.0947,9.94766
157.893,98.2427,7.42316
149.111,100.151,5.27521
142.379,105.948,3.54269
134.756,106.061,2.0064
126.708,102.008,1.10087
118.043,96.5818,0.792832
109.771,90.6941,0.770386
105.088,87.1837,0.928217
101.23,81.8675,1.02493
94.8903,74.9074,1.09142
85.5825,66.2981,1.18039
78.5298,57.8636,1.36972
75.5292,52.0223,1.76132
69.1357,47.2069,1.92722
58.1135,42.8863,1.1214
51.796,41.0686,0.520822
50.2536,44.6614,0.10984
50.5425,52.2572,0.0341451
50.7964,59.2451,0.321577
48.1265,63.1037,1.00752
46.8775,69.378,2.21108
53.5065,87.5105,4.06484
64.2171,112.596,6.4473
66.5049,125.369,9.11075
61.4776,120.745,10.4009
54.7499,114.776,10.5907
49.7181,112.624,12.4402
45.0992,107.13,13.9606
36.5226,96.2594,14.8524
28.9854,88.1558,16.4729
24.9694,82.9385,16.8835
22.6993,78.5161,16.5153
20.4899,76.345,17.9845
17.0861,71.2617,20.0596
13.8239,67.9379,21.1867
10.9527,67.8595,23.6367
9.06282,70.3319,28.0145
8.23442,79.0964,36.0275
7.62364,91.3883,47.3076
7.8768,107.329,57.409
9.60569,124.87,64.8721
10.5489,135.135,69.8761
10.1469,138.854,73.342
9.71049,139.62,77.458
9.24573,141.424,79.1822
10.8098,148.692,78.6525
14.056,155.529,75.9764
14.9295,153.941,72.2876
11.6486,143.835,73.1683
6.80557,129.911,76.8014
4.05494,121.215,82.1474
2.54598,114.937,87.0415
1.19065,109.241,88.8479
0.662489,108.491,94.6915
0.543303,110.161,98.5817
0.423028,112.43,97.8553
0.371152,114.009,100.627
0.332308,115.878,103.008
0.359806,120.28,106.121
0.429563,122.41,108.264
0.529113,124.641,109.553
0.892866,130.661,111.019
1.27178,137.528,113.599
1.44608,147.39,122.251
1.66952,154.049,125.855
1.83403,153.243,121.01
2.03042,150.5,118.56
2.42769,148.863,112.916
2.17938,142.725,105.217
1.91534,139.182,104.996
2.33553,146.277,111.161
2.38952,150.581,113.991
2.16566,146.007,109.737
2.09688,140.917,109.08
1.83825,138.145,111.714
1.24749,133.022,108.623
0.589621,124.015,104.911
0.147458,114.608,101.805
0.0124382,105.395,98.9731
0.00582077,96.1235,96.8066
0.0420132,88.8344,93.0907
0.11059,82.3149,89.191
0.204397,75.9746,84.5799
0.333876,70.3222,81.5425
0.669912,65.6487,82.6988
0.911766,60.6823,79.932
0.959285,55.7221,71.7939
1.05845,51.8705,65.8654
1.40071,47.3408,64.5995
2.22567,40.304,61.735
3.62274,31.2453,55.8235
5.32953,24.5876,52.5904
6.43352,20.9863,50.6428
7.21601,16.77,46.4673
8.56591,11.9971,41.4852
10.2234,7.83737,36.5132
12.4151,5.00963,33.0486
15.4354,3.04405,31.5561
18.7142,1.22949,28.5174
21.2742,0.259705,25.3869
23.8469,0.0129019,22.462
27.0503,0.489334,20.4507
28.1838,0.938891,18.338
26.8154,1.0139,15.6372
24.5419,1.294,14.3877
21.0385,1.38706,12.1296
18.12,1.05977,9.88366
15.5356,0.652196,9.88558
13.3041,0.110224,11.0606
11.5665,0.0031909,12.0054
10.0623,0.0710113,12.2011
9.63394,0.08635,11.551
10.0247,0.0283881,9.03446
11.3225,0.499289,6.91693
10.1453,0.672412,5.11938
5.67838,0.616806,2.29656
3.55666,1.14413,0.570816
3.48944,3.06068,0.00208153
3.78255,6.80438,0.562317
4.719,11.3499,1.57872
7.13513,17.2562,2.1815
9.88505,24.3964,3.2131
12.0796,31.1737,4.44393
13.4973,37.0449,6.18608
11.9658,37.6867,7.63383
10.0132,35.6938,7.48265
9.33088,33.6183,7.06377
8.41027,30.9862,7.02894
5.97027,28.1481,8.01522
2.99505,23.8529,9.06586
1.19377,18.1503,9.23562
0.672218,14.4,9.01273
0.470215,13.094,8.66193
0.201883,10.4143,7.49827
0.0512701,7.53131,6.2333
0.0256769,7.25665,6.63918
0.17596,9.29926,7.09081
0.92929,12.0863,5.94922
2.66463,14.8374,4.63206
5.13358,18.3968,4.07099
7.52081,24.3961,4.91507
8.17404,29.8498,7.27195
6.77444,32.7338,10.4294
5.56359,35.0502,12.9719
4.20763,34.1291,13.9482
2.86061,31.6829,14.7376
2.31678,30.2827,15.9612
2.00493,30.2955,17.1299
1.65672,30.1557,18.072
1.38812,28.5973,17.8535
1.30617,26.8745,16.5738
1.30544,25.692,15.3884
1.33328,25.0626,14.3746
1.05651,22.9113,13.8732
0.552344,19.0762,13.6751
0.0325156,12.3243,11.2242
0.094949,6.9391,8.40908
0.0951454,5.36828,6.75028
0.0294231,4.64948,5.40072
2.4761e-06,4.3428,4.33854
0.0229288,4.38865,3.46807
0.0716828,4.23731,3.11124
0.0152708,3.51179,3.21512
0.0598937,1.88589,2.60534
0.302308,0.63591,1.85101
0.33972,0.562706,1.99526
0.0697786,1.25111,2.01492
0.0684388,2.41023,1.64849
1.29737,5.55866,1.5545
4.15389,10.2925,1.50925
6.90617,13.1578,1.17979
8.48353,14.6331,1.11678
8.83155,16.0571,1.2913
11.2392,19.7756,1.42371
14.7202,26.002,1.8781
16.3863,30.5743,2.29851
16.5174,31.554,2.46689
14.9725,30.1028,2.58444
12.567,26.2245,2.34739
9.56144,22.2054,2.43202
7.57211,19.7211,2.68655
6.26898,17.1689,2.67051
4.59924,15.2375,2.87579
3.50732,13.5476,3.02528
2.65297,10.1047,2.52984
0.818581,5.90405,2.25914
9.79175e-05,2.67059,2.38452
0.347313,0.768726,1.95708
0.939473,0.0835395,1.39274
1.56302,0.00416011,1.15467
2.22725,0.0776237,1.34642
2.41529,0.0913619,1.6707
2.75004,0.130382,1.79637
4.68767,0.475325,2.24302
7.25722,0.721875,3.40096
8.93787,0.593271,4.71187
11.1979,0.660851,5.97631
14.921,0.898888,7.98626
18.3976,1.23468,9.92736
19.2811,1.69025,9.70996
18.2885,2.07185,8.54248
17.2238,2.12548,7.46417
16.6577,1.95917,6.83079
15.1229,1.68743,6.0939
11.8088,1.5371,4.5512
8.47514,1.50584,3.03945
6.43745,1.60144,1.62814
6.2714,2.52261,0.651556
7.16023,4.06259,0.373993
6.91063,4.90878,0.188195
5.13783,5.3473,2.44416e-05
3.51809,5.72874,0.234516
2.06616,5.04158,0.576444
1.07624,3.82478,0.835496
0.56087,2.92642,1.16518
0.085275,2.01419,1.24439
0.022971,1.32435,1.55475
0.0752173,1.20267,2.6402
0.126092,1.47484,3.14722
0.191463,2.01592,3.2688
0.324083,2.18565,3.74487
0.643354,1.54648,3.92141
1.15531,1.2319,5.10558
2.46387,1.14848,7.36727
4.50341,0.637005,8.55346
5.85706,0.307746,8.67464
6.14332,0.283184,8.46741
6.8631,0.183976,8.31972
7.37257,0.0285167,7.7011
6.8855,2.93425e-05,6.63556
6.255,0.012394,5.87912
6.27804,0.130624,4.79912
7.02688,0.469034,3.52078
7.37642,1.25709,2.27329
7.96335,2.43293,1.55153
7.43511,2.4925,1.34968
5.25265,1.44773,1.31226
4.04194,0.824306,1.46996
3.45911,0.698792,1.37454
3.01596,0.784107,0.86571
3.01064,1.02512,0.516229
3.14275,0.697542,0.749978
3.2869,0.37919,1.2965
3.70193,0.676372,1.20451
4.35923,1.03199,1.08931
4.00012,0.708879,1.18035
3.38515,0.288388,1.56036
3.79123,0.215244,2.11681
4.764,0.180019,3.04187
6.76064,0.317901,4.17484
9.02051,0.98005,4.02629
9.51707,1.59745,3.27554
9.33565,1.96537,2.51742
9.64891,2.91489,1.65367
10.2302,4.5811,1.05707
10.8134,6.1802,0.617717
9.16221,6.23955,0.233881
6.33785,4.98565,0.0458175
5.81798,5.01615,0.0161753
6.53592,5.71823,0.0334997
7.49305,6.94074,0.0274852
8.87724,9.22709,0.000467498
9.03212,10.1856,0.0628438
8.07371,9.86204,0.0844416
6.98538,9.00092,0.0659882
5.52586,7.66599,0.112046
4.12963,6.91307,0.342858
2.67125,5.79107,0.657654
0.929805,3.86154,0.96102
0.139933,2.08633,1.18155
0.00141617,1.08532,1.24045
0.0286393,0.793906,1.34533
0.122403,0.651901,1.36226
0.495872,0.467134,1.84313
1.44193,0.354962,2.90635
2.79985,0.04713,3.24969
4.07968,0.0867406,2.87843
4.31161,0.100577,2.69215
3.53812,0.0235001,2.86793
3.38079,0.0261238,3.08015
3.35287,0.000196854,3.34522
3.2201,0.105088,4.43692
3.98984,0.357029,6.57251
5.68611,0.311754,8.74611
8.07529,0.118049,10.4756
12.8383,0.00772476,11.9958
18.7558,0.490551,13.2259
21.4566,1.03422,13.2782
24.3792,1.82348,13.6236
27.3814,2.16173,15.3461
28.517,2.40802,14.6553
32.9032,4.56426,12.8369
37.9893,6.61997,12.5804
36.2128,5.85144,12.4697
31.6674,4.0217,12.7018
29.2081,2.65371,13.973
26.6387,1.7749,14.4833
22.6808,1.0601,13.8201
19.6836,0.717887,12.9987
18.341,0.701268,12.0269
18.4664,1.05406,10.5895
19.8008,1.98884,9.2225
20.3656,2.678,8.39369
19.0838,2.43088,8.01273
17.5862,1.86691,7.73718
17.5435,2.34332,7.03827
18.8035,3.60218,6.44519
21.3532,4.98923,5.90396
25.34,6.48653,6.15892
28.7474,7.80647,6.83249
28.1742,8.35351,5.94215
24.3689,7.79931,4.66847
22.3928,7.76441,4.21101
22.1427,7.75489,4.06327
20.7218,6.46979,4.32394
17.8472,4.19401,4.74028
15.6801,2.63676,5.25841
13.9397,2.02386,5.48721
11.7022,1.37526,5.31561
10.6255,0.932956,5.36151
9.85069,0.700297,5.41191
8.12271,0.214635,5.87715
6.2164,0.000836101,6.14463
4.70333,0.134043,5.92504
3.9645,0.233527,5.8897
3.65097,0.378175,6.00559
3.28499,0.838162,6.99067
2.56495,1.34586,7.21737
1.24109,2.01167,5.98644
0.446203,3.13416,6.12209
0.164172,4.34566,6.94346
0.0713941,5.0056,6.58578
0.0367767,5.94148,6.96494
0.00605355,8.91032,8.40574
0.317936,13.2264,9.05931
0.867386,15.1396,8.55857
0.884638,14.4425,8.24849
0.785972,14.9453,9.02029
0.878563,16.8751,9.68673
1.46367,19.5974,9.9142
2.81177,23.7836,10.0106
4.70406,27.8747,9.10566
7.38787,31.9498,8.13067
10.7988,38.1157,8.22059
14.5139,43.9223,8.11943
16.3569,46.7792,7.67168
15.1923,45.567,7.62423
11.4639,37.8101,7.12531
9.30983,30.9326,5.8361
9.3733,28.4679,5.52829
9.0784,28.7357,6.26683
10.088,31.4394,6.09273
13.3042,36.474,5.68973
18.0688,45.2536,6.20431
23.0359,54.5868,6.88946
28.8552,64.7373,7.31493
36.4867,78.6675,7.88803
42.4037,89.4231,8.41187
49.5147,99.3583,9.05841
57.7204,111.891,9.49464
63.3374,121.302,9.93573
69.9608,129.202,10.1407
75.0126,135.865,9.42129
75.5257,138.464,9.11374
75.7187,140.086,9.82699
74.6584,140.246,10.4899
70.7093,134.535,9.90982
72.7693,125.141,6.92062
75.3939,117.301,4.49024
70.1985,111.141,4.40356
61.7267,102.992,5.86415
53.2228,98.2926,8.14186
47.275,99.7133,9.64716
44.7853,104.27,11.8342
42.9416,106.108,13.661
38.5553,104.412,15.3561
33.525,105.913,19.4845
30.1606,108.779,23.0922
29.4956,109.24,23.8966
30.676,109.115,22.9424
31.8908,110.141,22.9876
31.8114,109.154,24.2478
30.0675,105.081,22.8132
28.6257,101.086,21.4532
27.309,95.7206,20.7182
24.5243,88.2211,19.1923
22.0535,80.5918,18.1217
20.1693,73.4272,17.0912
17.7316,67.1967,16.1116
14.6404,58.9218,14.5168
10.864,48.3778,13.0914
7.99691,41.375,13.0039
7.54648,38.0627,12.0575
7.71449,34.9909,9.39162
7.18089,31.4774,7.85532
6.89455,28.0398,6.88646
6.47507,24.9271,5.5376
6.5251,22.6025,4.44457
6.59255,20.8758,3.73967
6.71148,19.3973,3.19365
6.5967,16.1218,2.16634
5.15631,11.5666,1.08502
4.45854,8.2867,0.453571
4.77495,6.63761,0.132517
5.35253,6.22987,0.0270268
5.36051,5.49273,7.19763e-05
5.01264,4.29378,0.0147562
4.65547,3.45478,0.0699096
4.01411,2.76667,0.145764
3.62623,2.24945,0.138516
2.98102,1.54007,0.244839
2.32049,0.682762,0.678431
1.82507,0.125276,1.0995
1.44245,8.72053e-05,1.51199
0.980504,0.162028,2.15512
0.253414,1.37079,2.86251
0.00146335,3.86457,3.94702
0.00187263,5.14316,4.89729
0.069555,7.31365,5.76473
0.729088,12.7973,7.38878
1.38124,17.2252,8.92253
1.22442,18.4909,10.5105
1.1698,21.4194,13.4476
1.82581,29.6056,16.8229
2.0708,34.1612,19.0048
1.38702,33.8565,21.337
0.957553,36.5536,25.1114
0.550933,34.7016,25.8118
0.141026,30.1879,25.3024
9.44755e-05,27.4665,27.0782
0.00551975,24.5973,26.5896
0.000265075,21.3714,22.3805
0.00191647,18.309,19.1297
0.007706,18.2805,17.9673
0.156982,20.0205,16.3016
0.654342,20.6621,13.8065
1.28707,20.4176,11.3845
2.23237,23.3084,10.7391
3.30094,28.1462,12.0786
4.23015,33.383,13.6264
5.35542,37.2667,14.683
5.32334,38.5083,15.7329
5.24931,40.5403,17.417
6.80533,46.1386,18.1734
9.50117,55.1862,18.3413
11.7539,63.2333,20.2309
13.352,69.1667,22.2927
13.7754,71.7859,23.1857
12.5966,71.6042,23.3517
11.4162,69.9054,23.9558
10.5106,68.4122,24.8344
8.7159,67.2294,27.7721
7.09032,68.521,32.7145
7.63898,72.8304,33.6827
7.69289,73.6272,32.6427
6.21115,71.437,33.639
5.13389,71.3529,36.5335
4.46064,71.7365,38.8951
4.27502,69.0789,38.807
5.56391,70.7549,37.418
8.6311,78.077,34.8917
11.7257,82.8012,31.951
12.5492,82.5489,30.4339
10.27,76.5955,30.3512
8.91633,73.5443,29.8387
10.8708,76.7796,28.3228
13.5549,75.4134,24.1874
14.0753,67.9942,20.1064
14.9087,64.976,17.6872
17.4042,66.4373,15.5377
19.3986,66.1016,13.5078
19.8974,62.2089,11.4443
19.7752,55.3974,9.13328
19.9198,51.2227,7.20895
18.7447,48.457,6.38126
18.094,45.0223,5.74136
18.203,43.7422,5.47214
18.1469,43.2294,5.34046
19.9627,43.6222,4.87511
21.5102,44.5814,4.48739
22.6402,45.4899,4.02093
23.7425,46.5488,3.64457
25.0893,47.3475,3.40652
26.3308,48.0974,3.45601
27.7524,50.2556,3.46382
29.2798,52.1056,3.32492
30.0808,53.8628,3.38609
32.1569,57.1907,3.37472
34.3363,60.622,3.61063
35.5497,62.2718,3.75538
35.3135,61.2462,3.76032
35.4995,60.955,3.6973
35.8391,60.5432,3.33953
34.7741,59.9052,3.49357
34.9118,60.6601,3.6123
36.7645,62.2791,3.38216
35.7129,60.5325,3.04264
32.1274,54.2235,2.63748
28.3471,48.3865,2.56271
23.532,42.1319,2.65707
18.9447,35.4928,2.67708
14.9928,29.3722,2.29081
12.1874,23.9388,1.77193
11.116,20.8763,1.57607
10.7038,19.4884,1.59274
10.9236,19.4658,1.51458
12.7605,21.0611,1.17585
13.5095,20.7129,0.842204
13.5899,20.8788,0.742136
16.2784,24.5096,0.737975
21.3212,30.3658,0.732388
26.7005,35.3939,0.562889
27.6037,32.5465,0.259807
24.5324,29.1833,0.258253
22.2708,29.4734,0.479552
20.6904,26.8524,0.357667
16.0529,19.6595,0.171385
9.53922,14.3226,0.498815
4.2052,11.5507,1.69392
1.73924,7.24662,1.56771
0.662315,2.59407,0.595565
0.0404272,0.443353,0.247147
0.0337067,0.0052091,0.0784378
0.125027,0.297256,0.0438532
0.141485,1.24964,0.911096
0.146838,2.16185,1.4352
0.228758,3.40183,1.60544
0.156946,4.84623,3.01081
0.00849403,3.74847,4.28117
0.319142,2.22703,4.33962
0.399892,2.08161,4.10991
0.2467,2.37863,4.2037
0.0602022,3.5822,4.89645
0.0616105,4.11229,5.42745
0.32754,3.0239,5.19759
0.22984,2.77154,4.6032
0.0155374,2.1536,2.68025
0.00259426,1.2997,1.31677
0.0130653,1.42265,1.15286
0.109577,2.2045,1.44133
0.192462,3.35461,1.88807
0.16204,3.57054,2.22357
0.106976,3.62943,2.47039
0.133385,4.08442,2.67196
0.0128085,3.68932,3.26621
0.163666,2.42826,4.06511
0.48895,1.85874,4.46502
0.418771,2.0232,4.17469
0.175899,2.26747,3.85748
0.121428,2.32077,3.24415
0.406149,1.28088,2.62726
0.953674,0.359568,2.3585
1.26192,0.117253,2.07364
1.32403,0.0209025,1.67474
1.39682,0.0256012,1.08747
1.21062,0.0324358,0.664304
0.612834,0.00451375,0.463189
0.233718,0.0187965,0.297048
0.212956,0.00113717,0.195321
0.407902,0.0642439,0.150257
0.49267,0.218227,0.0924884
0.698817,0.641031,0.0242498
0.701958,0.903886,5.83241e-05
0.383883,0.717202,0.0292324
0.266562,0.802973,0.161804
0.132362,0.804642,0.260912
0.0273539,0.407454,0.170936
0.00176334,0.192329,0.192044
0.0594557,0.0957299,0.262645
0.0878722,0.0351849,0.214861
0.0143184,0.100258,0.189263
0.00179036,0.185051,0.255122
0.149811,0.0731827,0.455186
0.741755,0.0015045,0.689885
0.969415,8.52218e-05,0.886418
0.522828,0.0387273,1.01158
0.327261,0.141095,1.04723
0.305414,0.248903,1.03882
0.0449852,0.774785,1.02578
0.16774,2.44274,1.04793
0.558433,3.78157,1.11008
0.760933,4.02317,1.11995
1.20646,4.78122,1.1445
0.796151,4.08677,1.21065
0.0419257,1.91513,1.29059
0.327313,0.481573,1.64448
1.55549,0.00442602,1.58411
3.25916,0.822866,0.814486
5.2931,2.58498,0.451919
7.08212,4.29612,0.372986
7.87107,4.8931,0.349411
7.28199,4.36502,0.349817
7.46221,4.77762,0.291222
10.0083,6.87077,0.257053
12.522,9.12181,0.243843
15.1114,11.607,0.273053
18.0783,12.777,0.439562
16.2295,10.4518,0.551828
10.8495,7.45713,0.37198
7.52369,5.74007,0.170798
5.66025,4.59928,0.0578006
4.45059,3.89011,0.0405408
4.04499,3.40442,0.0502576
4.04888,3.55666,0.0183742
4.49548,4.28436,0.00828023
5.39217,4.567,0.0298381
6.19378,4.99434,0.0678751
6.24378,5.13015,0.0672722
6.34573,4.84926,0.0992169
6.35865,4.45584,0.155817
5.71742,3.71198,0.226785
4.04999,2.29481,0.384952
1.83056,0.701677,0.362879
0.650608,0.0560965,0.321101
0.368026,1.64742e-05,0.384403
0.236567,0.0371228,0.459417
0.138953,0.177863,0.65264
0.221597,0.126619,0.805039
0.243926,0.129677,0.865298
0.251482,0.137586,0.815671
0.364673,0.0987944,0.773415
0.364388,0.198358,1.23346
0.516964,0.158582,1.55267
1.19584,0.0018634,1.36656
2.74468,0.301983,1.24865
5.04425,1.86282,0.811473
8.05761,5.02104,0.255608
9.85557,7.48975,0.0909565
10.3695,7.92905,0.158929
12.2342,8.94214,0.245081
13.8423,11.1276,0.183185
15.1444,14.3625,0.0312352
16.6647,18.6271,0.0255499
15.8105,19.9431,0.244281
12.0287,16.5612,0.549665
9.1662,14.352,0.76668
7.84816,14.7823,1.21509
5.99647,13.6445,1.62287
3.99169,11.2106,1.7751
3.15772,10.6487,2.00596
3.06949,10.585,2.04414
2.79476,9.38349,1.86491
2.67457,9.62556,1.9127
2.60195,10.1613,2.13672
1.93683,9.12162,2.54941
1.13556,7.47309,2.93575
0.825166,6.96178,3.04892
0.878817,7.90715,3.37622
1.07942,8.74399,3.95208
0.938776,9.05272,4.41352
0.876444,9.83001,4.59404
0.710229,8.90882,4.65389
0.264582,6.73863,4.6637
0.168394,6.32726,4.83804
0.226894,6.87289,4.864
0.375927,8.90713,5.3746
0.711821,10.8903,6.17904
0.801579,11.2178,6.81107
0.800792,12.1647,7.05808
1.29913,14.94,7.36831
1.81791,18.4644,9.02066
1.90048,20.9755,10.8504
1.75124,22.5124,11.8219
1.90258,24.243,12.1954
2.35061,27.32,13.4761
2.39012,29.1074,15.4844
2.29594,30.6891,16.0177
2.41177,31.9754,16.4001
2.26389,29.7381,16.5104
1.78007,27.6434,15.4528
1.21885,25.9825,15.5108
0.978055,24.9237,15.53
0.964913,24.328,15.5344
0.54077,21.2676,15.3502
0.28785,18.0889,13.7791
0.362578,18.0705,12.9226
0.696006,20.541,13.3436
1.25454,23.2426,13.4789
1.27123,21.9792,12.8878
0.860742,18.4837,11.7272
0.651882,17.9061,11.3521
0.783006,18.9676,11.7479
0.955016,20.0814,12.0508
0.962267,21.1105,13.2354
1.17915,23.0349,14.379
1.74291,26.0589,14.8143
2.24399,27.3621,13.9119
1.9695,27.7684,14.5349
1.68773,29.3566,17.3379
1.9167,32.1482,18.4462
2.64809,35.867,18.7588
3.59035,39.0001,19.488
3.49879,39.7072,20.4291
2.13827,35.6445,20.6877
0.97572,30.2984,20.2918
0.731432,28.762,20.4011
0.952654,29.5735,19.8829
1.19962,29.1508,18.1645
1.32581,26.3644,15.8406
1.61643,24.3949,13.5408
2.28837,25.2314,11.8658
2.74186,24.4143,10.6184
3.42299,23.8186,9.28122
5.15368,27.7582,8.30102
6.55349,29.7857,7.8101
6.95879,28.6051,7.09077
8.01677,27.9971,5.87198
8.05977,24.0723,4.23891
6.28773,17.9422,3.24534
4.6307,13.1768,2.59289
3.80983,9.89028,1.47822
4.05956,7.69382,0.510108
3.98568,5.65143,0.126564
4.43904,6.05103,0.132862
7.00299,10.62,0.419423
12.1994,21.1369,1.08095
20.5305,38.5111,2.63304
31.109,59.1169,4.59659
43.6919,85.0489,7.34199
61.2536,127.947,14.357
80.9213,191.73,24.9584
94.9185,256.016,38.2161
102.673,300.25,49.7163
98.8141,304.424,54.102
89.2514,292.571,57.4206
81.494,280.737,59.1413
72.3512,262.935,59.0104
68.3253,252.208,57.6289
64.0537,226.835,48.842
55.9574,193.299,33.6328
53.3163,178.492,31.7243
49.8018,172.195,37.9812
39.7597,146.424,34.2333
24.2832,97.1212,25.1557
8.06307,43.1919,14.6427
0.0329434,6.6365,5.52045
8.01764,5.32425,0.271803
43.1879,75.6891,4.38424
127.835,267.287,23.8845
273.103,643.262,107.103
477.851,1238.43,231.781
708.876,1948.53,302.654
976.745,2761.03,439.41
1397.99,4018.89,664.243
1913.83,5543.58,925.559
2371.39,6884.9,1163.22
2813.49,8343.52,1455.03
3231.8,9896.99,1812.62
3577.12,11321.9,2151.67
3908.4,12670.1,2556.66
4154.04,13582.8,2832.35
4166.44,13908.4,2858.56
3945.43,13739.1,2929.8
3588.54,13082.3,2952.31
3235.6,12297.4,2894.37
2847.97,11373.7,2816.56
2436.66,10372.6,2730.01
2092.74,9506.75,2655.45
1806.76,8739.26,2576.47
1548.85,7978.93,2482.08
1309.75,7218.94,2367.25
1085.51,6485.14,2248.82
868.853,5779.82,2151.42
658.726,5042.04,2043.14
451.075,4192.82,1879.77
258.985,3226.33,1646.55
130.282,2417.71,1409.17
57.1905,1736.62,1141.41
10.6348,1017.61,813.754
1.89298,472.112,519.383
33.9137,156.629,271.672
105.817,8.5345,141.233
221.287,59.5094,53.3959
379.541,358.185,0.430504
577.46,898.28,35.2307
822.374,1650.51,145.248
1094.43,2585.83,312.373
1345.95,3562.99,522.264
1516.33,4349.03,723.707
1635.88,5031.77,920.784
1775,5804.44,1177.58
1934.37,6697.2,1458.74
2098.4,7647,1726.61
2195.03,8236.23,1920.29
2180.61,8268.1,1948.08
2067.7,7883.32,1862.41
1901.92,7291.08,1735.27
1731.06,6655.77,1590.7
1577.74,6034.6,1434.28
1439.72,5493.55,1309.61
1310.08,5016.87,1210.99
1212.24,4625.52,1115.48
1149.63,4349.11,1024.21
1087.01,4113.8,962.774
1012.44,3893.02,931.475
945.014,3701.18,899.839
893.47,3514.32,856.559
840.357,3301.14,804.794
781.977,3069.89,752.366
719.174,2845.45,701.833
656.023,2619.98,648.475
595.514,2389.71,598.049
533.012,2156.29,543.567
470.588,1924.21,488.409
418.891,1725.51,443.428
381.15,1565.79,399.976
345.435,1411.48,357.603
310.044,1268.5,319.696
282.191,1143.76,284.311
258.778,1039.85,257.734
239.02,958.51,239.4
223.28,885.137,221.256
202.2,810.12,203.089
185.676,742.844,183.849
176.138,690.675,166.231
164.889,637.723,153.366
154.287,593.119,142.597
148.605,563.555,132.545
146.153,532.796,120.71
142.222,503.472,109.881
140.516,485.578,103.144
139.411,472.126,100.783
134.227,451.961,95.2682
127.278,429.932,86.8475
117.642,406.078,83.6601
107.672,382.782,84.1127
97.1098,363.467,86.2989
82.046,335.415,85.0746
68.8665,300.042,78.5778
58.2137,262.391,71.8692
42.1529,218.561,68.1567
26.4401,181.935,71.3658
15.1068,151.816,74.1881
8.33315,128.661,72.1846
5.34766,117.306,71.8974
2.34211,97.01,68.7167
0.16252,70.5266,63.9585
0.236426,56.1969,63.2017
1.72963,46.1743,65.1482
4.18295,40.2254,70.2623
4.972,42.4478,75.3704
5.82976,40.0745,76.1529
7.29996,32.2228,73.3452
8.02023,26.3821,64.577
7.61513,26.0396,59.9731
6.30199,27.7197,58.6523
6.41727,25.0501,55.4536
6.8302,23.4595,55.8406
7.06783,21.4782,53.383
9.49327,14.419,46.9176
12.9464,8.42147,41.7086
14.9089,4.47757,35.014
15.094,1.73019,26.6244
12.7295,0.684074,19.1898
8.58504,0.489163,12.928
5.00854,0.816429,9.45138
2.73276,0.938595,6.70998
1.25808,0.76381,3.91791
0.328222,0.649783,1.91293
0.00243512,0.406733,0.457175
0.312914,0.430424,0.000672881
2.01254,0.840091,0.196838
5.64294,1.45118,1.06814
10.3987,2.02346,3.28947
16.1025,2.69125,5.75631
20.4604,3.56478,7.22791
22.6464,4.18071,7.75591
25.5724,4.76222,8.31518
29.3802,6.55515,8.30199
34.0827,9.77898,7.58938
40.2025,12.9418,7.45396
45.2068,15.5198,7.47714
45.439,15.5154,7.5047
43.8142,13.5626,8.20712
45.5699,13.1212,9.89883
45.8402,11.754,11.781
45.0666,9.66594,13.8257
42.7079,7.54137,15.5224
39.4142,5.94766,15.4086
38.0205,4.641,15.959
36.0711,3.3579,17.3631
34.606,3.035,17.0045
29.279,2.09741,15.3101
20.7085,0.606258,13.3142
13.0554,0.00133664,12.8369
6.78338,0.769154,12.7713
3.45296,2.19486,11.5204
2.03912,3.2825,10.2618
1.11546,4.21873,9.24889
0.516865,4.99516,8.64003
0.119891,5.59664,7.38712
0.023339,5.92565,7.03622
0.00184631,6.75638,7.04076
0.460649,9.32962,4.83079
2.82094,14.1914,4.00269
7.40621,18.9372,3.08326
11.2612,19.6984,1.39952
14.0117,19.6551,0.503655
19.5201,21.5807,0.0550461
27.3789,24.5794,0.0335611
37.6496,27.8285,0.65971
52.7937,31.0821,2.4161
66.8544,35.7171,4.42311
78.1202,40.189,7.54841
91.2728,44.5375,8.70077
103.096,51.0199,7.85583
114.476,57.0567,9.65873
126.368,60.3542,12.7286
140.043,63.2813,15.5491
151.855,63.8058,18.5871
158.87,63.0921,22.0483
171.099,67.2782,24.8759
190.646,74.3275,26.4872
208.745,80.4363,31.3167
217.655,84.1625,34.3341
221.194,82.2374,33.6257
224.041,77.7678,36.5765
226.218,75.9315,38.4583
223.644,75.5872,37.6485
219.713,77.5429,36.8265
227.156,83.3603,35.9118
237.946,89.8018,34.6531
244.33,95.4282,32.6919
246.61,95.9644,35.0722
236.059,88.1632,39.2473
227.055,84.1602,35.5339
223.528,85.81,31.4743
220.135,84.036,31.8359
215.664,77.1833,33.6838
202.159,69.3505,34.3226
191.49,63.9766,34.1473
187.055,60.8103,34.2787
182.135,60.4966,32.4599
180.82,62.0262,30.8308
180.646,63.6947,31.0393
172.439,60.3362,28.5371
163.808,57.2413,25.6648
159.308,59.5141,22.8606
148.536,59.2564,19.4175
134.427,57.6382,16.0256
122.719,57.1194,12.5717
115.431,56.0588,10.547
109.096,54.726,9.14136
101.537,53.2546,7.77513
97.6727,53.0526,7.47364
93.6224,52.9584,6.41758
86.3436,50.4144,4.83415
79.4549,47.1503,4.35075
77.2165,47.8836,3.36932
81.9994,54.9471,2.23574
89.6451,72.5517,0.71697
92.1421,93.8494,0.00254783
86.7562,101.054,0.497092
82.3903,102.077,1.10254
77.9619,100.427,1.39224
67.0761,91.3171,1.77968
56.2063,81.8736,2.47125
46.9318,72.9072,3.18885
37.857,63.609,3.44208
30.9669,56.3017,3.73466
24.6457,47.5518,3.97794
16.8095,39.9919,4.92285
11.7382,38.992,7.81534
8.84077,40.005,11.1488
6.5425,39.2864,14.2949
4.53692,35.9133,16.4148
2.72243,34.1697,18.4663
2.0625,38.8404,22.7886
2.08994,45.6812,27.5151
2.31464,52.8297,32.3925
2.59667,60.9284,38.2886
2.59884,65.5295,42.3592
2.37906,69.733,46.6704
2.38268,81.4467,56.0675
2.75293,99.4706,68.9719
2.99933,113.522,80.4724
2.4725,120.075,88.2297
1.64814,123.319,95.1506
1.07803,121.683,99.0538
0.585411,115.39,99.4076
0.180835,107.369,98.489
0.0125507,100.146,97.0208
0.0101022,95.6624,97.4234
0.000163114,95.7564,95.5851
0.00242309,95.3382,93.8985
0.02545,92.298,98.5751
0.387446,88.7185,101.216
1.36105,82.2429,100.437
1.96914,78.4049,102.188
1.67884,82.4308,106.52
1.57412,86.2514,111.599
1.68133,89.0243,114.788
1.38602,93.1708,116.659
0.846481,98.8382,117.71
0.242309,107.43,117.557
0.0511924,117.177,125.537
0.000955694,130.3,135.044
0.0417198,140.676,136.181
1.9178e-05,142.239,137.041
0.0819855,136.572,138.845
0.268598,130.027,141.62
0.400799,127.374,144.561
0.830803,123.791,145.945
1.76805,115.856,144.667
2.55407,110.387,143.541
3.57158,104.511,146.367
4.38283,97.292,147.056
4.66331,95.368,142.115
5.04603,92.648,139.221
5.31292,87.9653,136.115
5.65506,84.4245,131.351
5.514,82.7099,128.981
4.57751,83.2008,126.855
4.06465,84.5585,123.562
3.81237,84.1535,119.677
3.07501,83.85,120.772
2.77927,84.3224,122.42
3.08004,81.6114,115.787
2.77088,80.1046,111.536
2.80068,77.2146,109.824
3.6585,72.222,106.882
3.93938,68.0044,103.401
3.42964,65.7889,98.3962
2.69861,65.9717,94.6905
2.43493,65.6331,92.1762
2.93739,63.8604,94.0854
3.42066,62.5377,99.0849
2.73296,65.6358,95.8679
2.59328,64.3677,90.0176
4.47673,55.2048,90.7049
7.13337,47.6221,91.3574
8.03069,41.0913,85.0703
8.90358,34.0831,78.1391
8.94889,29.0467,70.0796
6.12615,24.2522,54.822
3.54967,19.6265,39.6015
2.26215,15.565,29.168
2.19118,11.3345,22.4726
3.28369,6.32883,17.7962
4.76871,2.24533,13.5919
6.09608,0.452976,10.2342
6.81923,0.0287284,7.97794
7.11224,0.00459407,6.32491
7.11875,0.226008,4.54537
7.1822,1.13449,2.59495
8.05761,2.11965,1.88266
8.58352,3.02927,1.61225
8.46497,3.84839,1.04714
7.6394,4.02004,0.607232
6.60039,3.84995,0.251559
5.5812,3.77036,0.102727
5.17542,3.88848,0.144973
4.61828,2.74984,0.3334
3.2977,1.5824,0.38077
2.6593,1.27974,0.23425
2.27826,1.29157,0.122483
1.84769,1.65885,0.0228751
0.954852,1.36943,0.0116875
0.300626,0.968634,0.178752
0.363403,1.54781,0.415401
0.391971,2.6009,0.920354
0.129513,3.63216,2.33124
0.00114077,3.68926,3.77101
0.0636882,3.67778,4.82476
0.061206,5.34427,6.29272
1.61047e-05,7.95244,8.10958
0.250458,12.1579,9.03785
1.02931,15.6397,8.40359
1.70352,17.0081,7.94255
2.29647,18.6245,8.15666
2.88214,20.9048,8.44664
3.85309,23.7609,8.59774
5.16068,27.0928,8.21158
5.93572,28.6748,7.73739
6.62894,30.0533,8.42431
7.04313,31.7245,8.91005
6.66458,30.2651,8.29302
5.60257,29.095,8.59595
2.92676,23.8914,9.40369
1.01922,17.1422,10.0149
0.42271,14.6252,11.1612
0.296204,14.6361,11.4456
0.306309,14.1649,9.98813
0.300116,12.3629,8.25799
0.699193,12.9388,7.33231
1.28538,15.2531,7.61075
1.8427,17.3804,7.71983
3.21188,20.3877,7.61984
5.39219,25.4297,7.75514
7.97847,31.5204,7.89669
10.097,37.1319,8.56529
13.8232,46.9903,9.9117
18.2892,56.8648,11.0483
19.9678,61.0766,11.6672
21.3763,65.7491,12.3641
21.9819,68.1781,12.6698
19.7417,63.8104,12.6827
18.7538,61.5352,12.1273
18.5065,59.9793,11.5229
16.5774,55.3893,11.2489
13.789,48.2031,9.89134
10.2914,40.5653,9.39181
7.67452,33.8131,9.2735
5.3881,27.1009,8.85824
3.02403,22.1699,8.75852
1.88839,17.3178,7.79262
1.08851,12.8393,6.55796
0.262088,8.46666,5.55884
0.0666326,6.18722,5.41988
0.140662,5.60827,4.31737
0.000228313,2.98848,3.08602
1.65205,0.185761,3.1766
6.7673,0.683531,3.40789
11.1776,2.18039,3.71525
12.7084,2.53117,4.18773
12.314,1.90155,4.66568
11.8268,1.00143,5.59755
13.6725,0.749146,7.61673
16.9862,0.823185,10.2095
16.3455,0.492434,11.2272
13.6217,0.104303,11.5121
12.1958,0.000114903,12.4239
12.0601,0.00290128,13.1319
14.6965,0.0252072,13.7436
16.5311,0.0578226,14.5211
16.9371,0.0555809,15.0644
18.0311,0.149062,14.8341
16.6785,0.192201,13.9033
14.9911,0.306511,10.8003
14.5286,0.846256,7.47026
12.5697,1.11599,5.82195
9.94795,1.04243,4.5005
9.13246,1.72029,2.97213
8.65737,2.57785,1.8216
6.95995,2.23782,1.27606
5.77875,2.21183,0.811006
5.18322,2.83649,0.341064
4.55348,2.9068,0.169916
3.16199,2.76667,0.000929228
1.61436,2.60805,0.336606
0.605474,2.50408,0.803712
0.0290474,2.20067,1.49021
0.0594334,1.94927,2.43915
0.366805,1.51582,3.20021
1.12701,0.90064,3.99068
1.97945,0.496651,4.2706
2.85271,0.211129,4.47341
3.62713,0.0703825,4.42683
3.95457,0.0160494,4.14366
4.37973,0.00851092,5.17495
7.48472,0.00023916,7.84985
11.0925,0.00828301,11.5391
11.794,0.141542,14.746
11.2221,0.308381,15.182
10.8517,0.215789,14.1794
10.6627,0.225334,14.2152
9.8516,0.398638,14.1326
10.2019,0.127369,12.4159
9.68663,0.00580099,10.4048
7.95133,0.00499764,9.21917
7.1734,0.0194208,8.11028
7.73796,0.0616068,8.55346
7.05879,0.486509,11.0333
4.60669,2.39547,12.8159
3.4933,3.93405,14.119
3.84968,3.59425,15.4336
4.89096,2.94208,16.5731
6.03841,2.38219,16.2575
6.60114,1.92519,14.3369
7.13719,1.4103,14.9086
7.87238,1.18122,15.6849
8.22071,0.924105,14.0125
7.79329,0.799122,13.7235
8.14672,0.712893,14.1151
9.2825,0.33924,13.3362
9.53199,0.248081,12.6336
9.87633,0.287717,12.6352
10.2262,0.219412,12.9058
9.4557,0.400548,13.0224
7.94741,0.944072,14.0451
6.73799,1.45866,15.6843
5.64518,2.12565,15.5913
4.78328,3.38312,16.5251
4.62536,4.34719,17.8328
4.35378,4.69083,17.1147
3.01525,5.84067,16.9825
1.97469,7.10089,16.6494
1.90348,7.30499,16.1895
2.12208,7.20258,16.7121
2.33325,7.2088,17.1836
2.09818,7.08008,17.0837
1.75484,6.82764,15.4842
1.67903,5.91436,13.7902
1.58827,4.87193,12.1695
1.17016,4.49017,9.95209
0.325291,4.95364,7.89266
0.00301497,5.85418,5.40256
0.112076,5.00424,3.23084
0.17611,3.52691,1.99138
0.545414,3.28223,1.18689
2.34169,5.39972,0.532961
5.3547,8.57395,0.253875
7.24979,9.12135,0.0683131
7.27047,6.64972,0.0293577
5.97161,3.58925,0.322998
6.34087,1.97192,1.08101
7.82548,1.17082,2.82915
8.09188,0.53803,4.6129
7.44369,0.0259392,6.42423
7.3533,0.0494196,8.35968
7.77745,0.289668,11.2782
7.70605,1.11575,14.8701
7.85011,1.76359,16.8005
9.00501,1.95251,18.8515
9.49813,3.11065,22.5784
9.27274,4.56205,26.1201
9.67002,4.94984,28.3941
10.2465,5.08085,30.5667
11.4647,4.8954,32.0572
12.2586,5.4798,33.8839
13.2984,5.65303,35.9341
18.4852,3.52496,38.0557
24.6997,1.61819,38.6563
28.3846,0.785107,38.7545
31.5518,0.257223,38.1891
32.9375,0.0571275,35.6564
31.2936,0.0715327,34.1796
31.0743,0.0998427,33.8661
32.8823,0.0286251,33.3991
32.9625,0.00461477,33.0789
34.6338,0.00882343,33.1347
36.9889,0.172993,32.8558
35.1009,0.2692,30.5214
30.8902,0.0639734,29.3985
26.331,0.0387814,29.1453
22.4495,0.297972,28.1441
19.2744,0.775564,28.0025
16.3578,1.48033,27.8645
13.4452,2.55304,27.9207
11.1664,3.70499,27.2379
8.70203,5.44549,27.9794
5.27928,9.24351,29.7478
3.01521,12.9989,29.7451
1.84218,15.5861,28.2973
1.02581,17.9435,27.3256
0.680091,20.0686,27.5353
0.521383,21.7118,28.2878
0.559414,21.8614,29.2091
0.927599,20.656,29.2341
1.45284,18.9256,29.3563
2.0107,17.0808,28.5658
1.15729,16.4557,25.8247
0.00377856,18.919,19.8322
0.39115,22.9461,16.1936
0.563336,26.2673,17.8269
0.649291,29.5305,20.8131
0.33988,30.9521,24.4089
0.14938,31.5789,26.7837
0.266373,33.1134,26.8055
0.451057,34.6004,26.6928
0.667703,39.0231,28.5989
1.18786,45.496,31.8419
2.48939,52.1375,32.5981
4.39491,58.4442,30.5412
6.80693,63.7339,28.5858
9.70587,68.0308,25.8869
12.3877,69.7996,23.2936
13.0688,69.8329,22.2997
13.2441,66.4128,20.0823
15.8903,64.6635,16.3752
19.7563,66.7,13.0492
21.2603,63.5664,11.223
21.4534,59.402,10.1494
21.9058,58.4953,9.06613
19.836,54.0937,8.72856
15.3191,44.1166,7.67242
9.78523,31.5493,6.05723
6.7835,22.3517,4.31642
6.07705,18.111,2.9588
6.33025,16.9514,2.48148
8.11295,17.7978,1.86312
11.0349,19.9993,1.53943
13.7541,22.8383,1.37488
16.2719,25.0296,0.997301
19.998,27.9753,0.769248
22.8112,31.6528,0.730874
24.8146,35.1549,0.777487
28.15,38.4391,0.795852
31.9491,40.8116,0.603789
35.0948,42.2387,0.38699
38.357,44.0914,0.277834
39.4634,44.4779,0.1863
37.1037,40.4974,0.1598
33.9862,36.389,0.0809316
32.1038,34.6175,0.0244331
31.5297,33.5977,0.0262943
29.4939,31.5722,0.0449205
27.1466,28.5389,0.0117403
25.7266,25.7641,0.0106524
24.1663,23.5864,0.0106492
22.1073,21.5061,0.00698434
20.0224,19.4596,0.0224616
18.582,17.5864,0.016183
16.9519,16.527,0.00446672
15.6662,15.8171,0.000548601
14.1073,14.7284,0.0192722
11.8696,13.8167,0.0524847
10.5738,12.8504,0.0941221
9.91131,12.67,0.172777
8.51031,12.6303,0.308135
6.76475,11.19,0.419977
5.16696,8.24546,0.332027
3.38202,5.20974,0.302168
2.85245,4.61047,0.304622
3.01863,4.7525,0.159251
2.7256,4.1556,0.12799
2.90583,4.60903,0.195581
2.2706,4.56055,0.292318
1.36538,3.39182,0.369147
1.32285,3.65004,0.506213
1.73283,5.62607,0.855998
2.76512,8.40545,1.32287
4.33701,11.0085,1.52919
5.85639,13.2584,1.59679
6.74825,14.1105,1.39375
5.88801,11.8288,1.01873
4.28973,8.80424,0.83264
2.09433,5.48773,0.714723
1.19139,4.19482,0.799258
1.88151,5.3282,0.855236
2.21962,5.98672,0.947723
2.71317,7.16993,1.26319
3.699,8.75144,1.33215
4.20536,9.24945,1.06905
4.38015,8.29162,0.653602
4.56645,7.18122,0.305127
4.15771,6.30521,0.14372
3.91615,4.40285,0.0302852
3.45404,2.64539,0.0152082
2.02064,1.30869,0.133396
0.923665,0.317334,0.161463
0.42273,0.00214042,0.28865
0.548037,0.0023456,0.688067
0.923723,0.000367299,0.940577
1.19315,0.00901943,1.32744
1.68121,0.00601325,1.83027
1.50607,0.102229,2.35038
0.912407,0.482781,2.69305
0.720618,0.768886,2.56525
0.443333,1.02012,2.43778
0.249802,1.12385,2.32817
0.32357,1.08079,2.50867
0.246336,1.29352,2.62879
0.0805501,1.7924,2.48206
0.0116644,2.92898,2.38099
0.166256,3.13902,1.88166
0.261466,2.29823,1.06883
0.467092,2.1489,0.741282
0.453325,2.40303,0.93272
0.534945,2.48345,0.864404
0.466008,2.19079,0.73248
0.185498,2.05257,0.963265
0.218056,2.13238,1.00223
0.217515,2.42874,1.27933
0.0541406,2.62251,2.27778
0.0266319,3.26825,3.14262
0.132851,4.44637,3.21072
0.544924,5.42884,2.75678
1.27632,6.65523,2.04638
2.05931,7.98932,1.68375
2.66214,9.38096,2.08012
3.31737,11.9121,2.55646
4.15684,14.7069,2.90841
4.96077,17.3199,3.43617
5.93501,21.407,4.46634
7.50399,26.1926,5.54676
9.50395,30.821,6.08697
10.4407,33.7887,6.53922
10.0397,34.7689,7.16332
9.86132,36.6901,8.30278
10.8566,40.5011,9.17632
11.763,42.3139,9.44318
11.854,42.9801,9.87575
11.3531,44.5921,10.6641
10.7763,44.3416,11.5114
10.666,44.6961,12.0195
10.897,46.0243,12.2835
11.4128,47.4885,12.8925
12.0235,50.6526,13.9321
12.5354,53.4923,14.6249
13.1965,56.3292,15.2793
13.0995,57.1316,15.3447
12.3457,55.8666,15.1322
14.9147,61.4252,15.6164
19.3355,70.4174,16.4573
21.0458,74.4695,17.218
21.0072,75.1019,16.6148
21.1108,76.5578,17.0377
20.2264,76.5965,17.8796
18.1233,72.1264,18.0406
16.4319,67.8863,17.9857
14.5139,63.393,16.8044
12.2076,56.3609,16.3048
10.371,51.797,16.3291
11.1739,52.7987,15.7577
13.9464,58.2696,15.8186
15.4793,62.3481,15.8286
15.0941,60.4038,14.8762
13.4697,53.7099,13.6541
11.3431,48.5807,13.6184
9.27665,46.6699,14.7035
8.91453,46.9047,14.9752
9.25442,47.8336,14.1963
8.69044,43.4923,13.0363
7.4685,37.9407,12.3402
6.31945,35.8449,12.1071
6.50952,35.8552,11.3884
7.07031,36.3152,10.5623
7.45181,36.5772,10.3107
7.99465,36.2053,9.88666
9.36241,39.3982,9.7151
14.1427,52.1738,11.0857
19.9829,63.7848,12.44
21.5884,64.8416,11.8267
19.0251,60.3001,10.9597
14.7678,51.2853,10.7528
12.3541,44.344,9.98345
11.2421,40.8779,8.8622
8.78593,34.5501,7.88858
5.7438,25.1683,6.57306
2.53875,16.4308,5.74727
0.424329,9.51105,5.53896
0.00149504,5.64352,5.3663
0.00520249,4.88062,5.10592
0.000358867,5.0951,5.23666
0.000558293,4.695,5.49145
0.00121035,4.17079,5.09024
0.0114217,4.13565,4.48303
0.000294153,5.37663,4.88241
0.0389017,7.02659,5.73787
0.381523,9.07008,5.7423
1.32054,10.5721,4.80832
1.92521,10.3817,3.6107
2.48343,10.1334,2.562
4.32533,11.1738,1.59138
7.33674,13.6041,1.01022
8.93315,14.3443,0.601171
9.09772,12.2459,0.16442
8.45964,8.62308,9.0804e-05
7.04031,6.17576,0.0548995
5.94271,5.12863,0.0614781
5.26177,4.25246,0.0752947
4.8267,3.25029,0.138868
5.4571,3.65412,0.194456
7.57115,6.35811,0.0978614
8.48723,8.19742,0.0032611
7.85117,7.98854,0.0149459
7.14813,7.9422,0.0347739
5.92167,7.59308,0.0397581
5.94156,7.69966,0.104925
6.81047,9.98022,0.393128
6.85418,13.1066,1.07414
7.84442,16.2825,1.64853
8.0625,17.4456,1.83699
6.61223,16.6147,2.38608
5.17733,14.6053,2.62718
4.19907,11.7159,2.03472
3.80398,9.85912,1.30702
3.24199,7.21265,0.607946
2.90901,4.69466,0.217316
2.62794,3.27366,0.0827036
2.41302,2.76636,0.0411111
2.44374,2.41316,0.00656986
1.84616,1.4156,0.00870344
1.07073,0.691768,0.0571421
0.951202,0.600521,0.0607651
1.2625,0.90177,0.0243093
1.32783,1.33882,0.00108931
1.43641,1.86495,0.0063759
1.43882,1.65594,5.37932e-06
1.01483,0.659859,0.0617925
0.786974,0.219469,0.155102
0.778981,0.108549,0.317368
0.745808,0.0137043,0.748802
0.679487,0.0434197,1.03266
0.486392,0.32016,1.19147
0.154058,0.980322,1.54901
0.000996692,2.26816,2.00197
0.209422,3.58555,2.22838
0.4621,4.50603,2.21362
0.523733,5.55988,2.23608
0.79964,6.44901,2.28571
1.22831,7.24991,2.41326
1.43714,7.73722,2.57508
1.64497,8.23407,2.59446
1.88652,8.60955,2.43466
1.78045,6.83738,1.67864
1.54049,4.55475,0.737726
1.52346,3.53161,0.428314
1.2169,3.00493,0.416031
0.779466,2.40294,0.464104
0.572754,1.93397,0.486999
0.664652,2.04842,0.351769
1.11124,2.63403,0.279501
1.4622,3.11296,0.38325
1.43082,3.62031,0.559277
0.876305,3.4078,0.753563
0.179449,1.99893,0.920266
0.0111462,1.21388,0.990683
0.120377,2.01713,1.13256
0.639053,3.34556,1.24376
0.575367,3.28471,1.3761
0.355335,3.11544,1.35707
0.751644,3.62257,0.967358
2.06058,5.41306,0.779277
3.63623,7.94134,0.996661
4.27407,9.65408,1.28837
4.46586,10.4644,1.3964
4.46444,11.0837,1.58847
5.65056,13.6522,1.72865
7.54028,15.9214,1.35545
6.6029,14.0883,1.39864
4.64155,13.0167,2.23852
3.86856,14.0996,2.86739
3.00509,13.2869,3.53812
2.26566,12.7253,4.53845
2.29409,14.1074,5.21288
1.66186,14.076,6.03996
0.653935,12.2998,7.11574
0.236129,11.45,8.36635
0.00430504,10.4133,9.90075
0.164036,9.2347,11.3713
0.111377,8.68682,10.6134
0.0638577,7.02764,8.73855
0.438429,4.64402,8.137
0.877862,3.61148,7.47384
0.809852,3.02778,6.72182
1.32598,1.53777,6.02282
2.55672,0.545961,5.32316
3.28552,0.178043,4.91255
3.77525,0.073563,4.9113
3.73766,0.112957,5.0041
3.31001,0.321093,5.64061
2.12241,1.11546,6.29514
1.00976,1.97231,5.82
0.392582,2.4345,5.14773
0.00140156,4.58443,5.26842
0.160129,7.48858,5.85182
0.239777,8.33438,6.72082
0.261817,9.33046,6.82304
0.234095,10.2958,6.72989
0.221662,11.3218,7.85378
0.370344,13.7433,9.05405
0.682875,14.975,9.1144
0.551851,13.4216,8.66897
0.263029,12.1637,9.21838
0.187382,12.1672,9.45318
0.118012,11.7346,8.76878
0.209338,11.4081,8.25669
0.383156,11.5261,7.59362
0.54155,11.3611,6.63771
0.737267,10.2621,5.27341
1.23193,9.85136,4.03858
1.8275,10.1917,3.44935
1.52672,9.15063,3.09449
1.40764,8.41625,2.9504
1.97632,9.46649,2.60102
2.63802,10.2499,2.06952
4.16079,10.3626,1.38253
4.61264,8.84072,0.834416
2.03205,5.06789,0.672518
0.403518,2.70075,0.949942
0.0996548,2.28998,1.44223
0.132367,2.50077,1.711
0.328248,3.61832,1.91832
0.989605,6.72518,2.48197
2.35326,11.4285,3.42765
4.29979,16.9505,4.16419
6.75531,21.6893,4.17728
8.88479,23.1594,3.59377
9.88894,22.6648,2.69501
11.2679,24.2161,2.26963
14.7438,30.1913,2.67319
19.4126,39.5182,3.17458
24.4056,48.2995,3.76336
28.4544,53.9348,4.18673
29.7278,55.1391,3.96301
28.7879,52.5608,3.61602
26.2173,49.0352,3.60627
24.1203,47.9487,4.19177
22.4982,45.6239,3.94303
19.8007,40.423,3.50148
17.6081,36.8898,3.50168
17.7491,34.7584,2.67054
16.481,29.0411,1.80265
11.129,20.2496,1.51881
6.99556,14.8299,1.47607
5.83829,12.8419,1.34465
5.48573,12.391,1.51281
5.05946,12.6202,2.17711
5.36774,14.0535,2.4252
5.81745,17.6609,3.02595
6.00599,22.6318,5.09179
7.38248,28.5947,6.56426
9.66035,34.0715,7.14328
10.9886,37.3761,7.50153
12.0504,40.0649,7.89896
14.279,44.1409,8.38392
16.0698,47.6403,8.34451
17.2382,50.203,8.9747
17.6375,51.4912,9.36162
16.6102,48.605,8.31782
17.3583,47.1685,7.13492
19.2181,48.2641,6.51602
18.2201,44.4419,5.73707
15.279,35.5086,4.38596
12.9626,28.108,3.35298
11.9493,25.1744,2.63963
13.9012,26.9881,1.90458
17.0581,30.4561,1.78532
18.8262,32.5573,2.81272
21.4641,36.6356,2.66182
26.3867,44.7525,2.11601
36.019,58.3036,2.44422
46.5355,73.6675,3.01431
54.6625,89.0077,4.11588
66.0625,109.271,5.47794
77.4828,135.735,8.28564
90.4159,171.108,12.677
104.104,216.063,20.2198
117.751,276.64,36.0539
132.321,346.564,53.2918
138.636,396.258,64.7556
138.847,427.469,77.075
139.859,447.458,84.5964
137.588,439.539,85.5549
127.164,422.613,85.2092
116.272,390.425,79.005
108.062,341.086,65.0066
100.93,307.794,57.816
86.4177,274.437,43.6915
63.7527,219.04,34.0778
39.1396,154.08,37.6217
17.8087,93.7247,31.0017
2.95452,34.601,16.702
1.59972,0.822285,4.6759
22.0775,27.4921,0.317265
82.6735,163.68,13.2506
203.767,470.109,56.6033
378.153,976.507,133.251
608.951,1651.48,282.648
894.586,2471.74,498.19
1198.41,3427.35,600.716
1538.07,4550.43,768.903
1941.3,5869.26,1047.81
2389.71,7388.95,1352.89
2807.83,8998.01,1740.53
3126.14,10526.8,2152.85
3379.21,11865.4,2560.48
3575.5,12927.2,2885.59
3689.1,13790.3,3218.46
3664.48,14204.8,3549.26
3516.86,14072.2,3574.39
3279,13610.8,3489.15
2949.94,12940.8,3497.28
2566.8,12015.4,3440.9
2179.73,10890.9,3301.89
1850.59,9778.2,3087.87
1575.33,8719.78,2859.64
1334.88,7855,2692.13
1092.23,7006.44,2540.11
860.54,6144.63,2354.74
663.638,5409.56,2237.21
495.584,4697.62,2118.94
324.78,3799.02,1879.46
182.822,2891.65,1604.63
88.1724,2175.71,1371.68
29.5186,1532.01,1115.67
3.1239,911.602,801.95
5.82652,414.32,512.46
49.285,103.763,297.268
123.462,1.49012e-08,91.7101
209.279,90.2059,7.92046
322.584,384.461,3.47409
492.743,979.762,81.4312
709.469,1859.18,268.733
938.081,2882.98,525.396
1141.5,3859.94,805.536
1281.14,4657.38,1048.4
1364.66,5342.36,1291.62
1449.15,6051.96,1565.54
1597.31,7072.87,1945.52
1756.55,8140.06,2336.92
1809.29,8541.04,2485.67
1773.76,8382.15,2434.26
1729.82,8114.95,2338.76
1664.94,7751.5,2216.3
1556.73,7185.46,2042.77
1438.7,6534.53,1838.62
1318.83,5922.71,1647.83
1196.59,5335.99,1470.12
1088.97,4787.3,1309.08
998.657,4334.72,1180
915.522,3954.5,1066.89
833.101,3610.45,971.37
752.434,3304.36,895.204
708.608,3083.71,828.367
671.982,2879.55,765.525
606.894,2645.59,709.746
558.662,2469.07,672.143
522.631,2335.91,642.337
474.567,2184.63,615.35
431.587,2032.15,596.166
396.166,1889.96,557.193
367.038,1760.51,512.613
342.378,1639.67,478.354
310.715,1508.5,443.992
289.063,1405.06,414.526
279.657,1324.65,383.06
260.735,1225.39,353.918
238.511,1137.87,331.076
214.171,1055.53,309.853
190.122,965.706,298.724
171.799,880.132,278.927
155.211,799.277,247.683
143.139,733.036,225.811
131.132,668.308,206.071
115.725,609.44,190.598
103.115,568.89,181.798
94.6036,534.193,175.805
88.1351,504.025,171.356
83.1854,477.592,162.199
75.8321,446.678,158.213
63.6002,408.862,155.78
55.0593,374.504,142.473
51.6137,350.453,132.613
42.0174,312.718,125.855
29.8689,268.497,118.138
19.3621,228.526,112.369
10.6512,188.09,108.095
5.61239,157.501,103.966
2.14192,130.544,97.6845
0.244054,106.168,96.6784
0.0171082,90.5889,99.8865
0.299206,81.4764,94.3574
0.998658,74.4391,90.5407
1.87396,66.7376,89.4326
2.21716,59.7347,83.6565
2.45248,50.8143,75.9932
3.64975,40.6842,68.1053
4.98207,32.4373,61.8946
6.72675,24.7273,56.2527
8.42891,19.8032,53.4428
10.5351,15.3964,52.0025
12.6052,10.5927,46.4056
11.8998,8.46652,40.1093
11.3669,7.73671,36.2756
9.62537,7.26208,32.1965
7.94487,5.63512,26.9612
7.73501,3.83499,22.6557
7.37286,3.06314,19.5112
5.91139,2.64459,15.2052
4.21071,2.14201,11.454
3.89474,1.04193,9.18755
4.42195,0.129107,6.52097
4.57914,0.018876,3.87934
3.39964,0.0283983,2.63725
2.21425,0.015276,1.94821
1.57351,0.0829583,0.845751
1.40154,0.450924,0.175899
1.46859,1.18882,0.00522232
1.16525,1.76327,0.0639271
0.689942,2.007,0.307001
0.236307,1.88492,0.71176
0.00204825,1.78913,1.51398
0.131442,1.83498,2.8234
0.35399,1.71561,3.69419
1.18072,0.913807,4.51524
2.58989,0.351236,5.15992
3.28151,0.33106,5.58726
2.90812,1.0636,7.19725
1.87906,2.8996,9.55355
2.47999,3.56777,12.3403
4.35343,2.96439,15.3304
4.21084,4.05365,17.6088
3.40808,7.20561,21.3413
4.10839,10.391,27.6244
3.74244,15.8257,34.7883
2.11796,25.1565,41.3994
1.2377,30.5529,42.8836
0.974771,29.2823,40.9021
0.742254,28.7556,38.5231
0.383448,29.6288,36.7358
0.405799,27.4543,33.3379
0.472363,24.5377,27.9997
0.38971,21.0028,25.6864
0.463179,17.3888,23.8028
0.388378,15.0568,20.4803
0.371598,12.5617,17.4471
0.450801,11.824,16.7555
0.219727,13.1291,17.2154
0.0496846,13.9428,15.4436
0.00280349,13.586,13.2895
0.384545,17.6237,12.9937
3.11732,27.9639,12.6401
7.76135,39.3139,11.9447
13.6989,50.1673,11.5828
21.4635,60.3002,10.7152
31.8935,72.9062,9.50795
47.0849,95.5105,8.92563
65.811,120.109,8.56931
78.0436,132.957,7.77325
82.6708,136.89,6.75844
87.8431,140.677,6.13351
91.8551,145.737,5.89286
95.7624,149.876,5.53947
100.244,153.836,5.76495
102.509,153.204,5.47544
104.145,152.263,4.52367
107.434,154.318,3.89727
113.654,154.435,3.12768
121.048,153.278,2.10457
124.698,148.584,1.18596
127.119,142.31,0.614411
130.528,137.945,0.102894
130.642,129.359,0.0688806
127.959,120.923,0.125686
122.279,116.306,0.0440452
120.36,114.457,0.0476115
125.243,113.1,0.180278
128.389,109.245,0.601089
128.9,105.741,1.05625
131.901,105.571,1.50408
137.643,108.225,1.66278
140.552,107.414,1.96819
145.786,109.325,2.82853
151.13,111.822,3.08776
146.8,109.72,2.74842
138.561,107.511,2.14246
140.604,115.294,1.00287
143.853,126.383,0.410518
130.817,114.461,0.464759
121.842,107.027,0.490103
123.25,113.457,0.338299
129.384,122.17,0.127445
134.668,128.518,0.0746846
125.713,117.913,0.128428
115.082,107.636,0.0884975
108.233,103.658,0.0432038
101.467,102.426,0.00165983
94.0143,102.833,0.202182
80.2995,96.0529,0.635886
67.3169,86.7619,1.0503
60.1857,81.4362,1.47696
52.318,77.049,2.40729
45.2191,71.3571,3.10344
39.3482,64.377,2.88517
33.0843,56.6588,2.98018
29.5959,53.011,3.65978
27.7831,54.1494,4.78729
24.6898,53.7963,5.49417
22.6695,55.4127,6.74845
22.3237,59.7611,9.16961
19.8846,60.3637,11.1954
18.9068,64.065,13.3075
19.3873,70.067,15.6574
19.1953,74.3819,18.8621
20.9905,83.9742,21.1957
23.6239,93.8947,23.2754
24.0596,100.665,26.2944
22.69,108.082,30.8688
20.3256,111.425,36.6814
15.0024,107.509,42.0081
8.74313,98.7447,48.2628
5.59556,94.3216,53.7479
3.77771,90.0419,57.4965
2.32314,83.1894,60.028
1.53122,79.9509,59.6901
0.600284,73.3293,59.4729
0.165908,65.0392,59.6045
0.126401,63.181,58.2263
0.40316,64.6003,54.2435
0.816842,62.6029,48.6279
0.554995,58.8987,47.0584
0.421818,60.218,49.4659
0.456021,65.9292,54.4239
0.397387,69.7643,61.3742
0.575414,75.4734,64.4963
1.03044,81.8005,64.6636
1.25046,84.4968,66.1354
1.04508,87.9819,68.4818
1.46785,93.8187,71.5511
2.00367,98.0818,73.114
1.66637,97.6686,74.4543
1.08619,91.0394,73.6328
0.256079,77.6263,69.1837
0.000224982,70.461,69.0247
0.000136972,73.1775,71.8178
0.0123736,74.5847,71.8551
0.0829671,65.3286,69.6684
0.228846,59.7542,66.7569
0.0989768,57.9337,61.9408
0.472258,45.8923,55.5794
1.55987,34.4418,50.4214
2.84555,26.6064,46.9586
4.77702,18.5481,41.712
6.6754,12.7817,38.6821
7.90389,10.9187,39.8896
8.32575,11.7651,39.7658
8.47176,12.3011,39.6113
9.07882,10.9565,38.7849
9.69043,9.23878,36.5198
9.91247,8.23854,34.4525
9.75581,8.23906,34.4984
8.39793,9.54129,35.7146
7.08658,11.6216,36.4244
5.51436,14.9101,38.6391
4.06521,18.0223,41.189
3.74174,18.7964,39.5317
3.39137,19.8893,38.259
2.54306,22.0623,38.6543
2.32575,21.8184,37.9047
3.09382,19.6638,38.3505
3.88115,17.884,38.7186
4.7525,15.6583,38.4931
5.44684,15.1241,39.058
5.37493,15.6294,38.5305
5.9111,13.0887,35.5066
6.99161,9.46584,31.1267
6.94826,7.84301,28.6745
5.82284,7.29122,25.8005
4.90357,5.63483,20.2782
4.64468,3.18047,14.8362
3.97733,1.61411,10.2141
3.75042,0.690398,8.02507
4.09597,0.186208,6.5989
3.05417,0.133798,4.69176
1.91352,0.245716,3.71198
1.68775,0.187131,3.05055
1.56926,0.030015,2.0708
1.69891,0.0899561,1.0155
2.83927,0.836236,0.515221
4.89729,2.85858,0.305583
6.60502,6.03116,0.0285477
8.46626,9.05924,0.018642
9.96904,11.3715,0.05833
10.252,12.2654,0.085652
10.7205,12.7879,0.0457522
10.9642,13.5309,0.0745679
11.1704,14.5538,0.300392
12.185,15.6318,0.350404
13.002,16.164,0.219412
11.9021,14.1441,0.150462
8.62393,9.37498,0.0243331
5.93862,5.62353,0.00691058
5.19387,4.4883,0.0112884
4.47015,4.44071,5.82077e-09
4.18567,5.36404,0.054539
5.13797,7.10129,0.18297
5.74332,8.07685,0.250031
6.15803,8.94287,0.273476
6.75844,10.5301,0.351145
6.68068,11.9609,0.714156
6.66302,13.4683,1.28371
8.27322,17.0006,1.59267
9.66817,19.0091,1.46951
9.26772,17.8961,1.33244
9.04235,17.5139,1.32558
9.22338,17.2415,1.29397
8.7562,16.2861,1.27729
8.22949,15.6658,1.1851
7.73085,14.7735,1.30929
6.82318,13.706,1.49582
5.41816,12.4991,1.48993
3.35508,9.20875,1.51169
2.37528,6.86046,1.30388
1.78131,5.52913,0.969204
1.04565,3.62797,0.702495
0.808328,2.70599,0.511045
1.05736,2.94676,0.414772
1.88911,3.86835,0.35869
2.48117,4.15025,0.250153
3.05709,4.76269,0.23757
3.85771,6.29241,0.256883
5.01751,6.90417,0.102473
6.68656,7.48841,0.0361125
8.57623,9.07872,0.0300044
11.3152,11.3791,0.0251491
11.9812,12.4141,0.0316872
11.0443,12.7577,0.0545675
11.5257,14.3683,0.124165
11.725,14.6077,0.148821
11.4662,14.5754,0.158947
11.0172,14.1204,0.183558
7.88288,10.9244,0.271707
4.78059,8.27098,0.48382
4.40743,9.40912,0.856393
6.01777,13.7062,1.38447
8.28723,17.3827,1.64055
9.72437,19.2662,1.73594
9.86986,20.7418,1.89991
7.93937,19.7645,2.41359
6.02778,17.8113,2.87072
6.36045,19.7737,3.26395
8.23399,23.7781,4.29106
9.93436,27.5893,5.01284
10.7381,30.2971,5.01523
13.3784,35.9187,5.47059
15.7104,42.1267,6.03978
17.8032,43.4113,5.55909
19.6046,43.5549,4.61047
18.4044,42.1385,4.47322
16.2602,39.5163,4.95904
12.5746,34.2186,5.08897
9.26402,29.8339,5.59487
6.94987,27.139,6.27268
4.69979,23.0029,6.69082
2.54393,19.3116,7.80877
0.829399,15.6243,9.18755
0.0986746,12.8489,11.1223
0.0189831,10.4126,11.9994
0.316432,7.82908,11.189
1.01839,6.26257,11.8186
2.03919,5.16847,12.9732
2.742,4.95253,14.8275
3.21498,5.30533,16.6029
4.17475,4.56872,16.7522
6.19166,2.711,17.1873
9.24676,1.24661,17.5854
12.1218,0.607633,17.982
14.0002,0.278935,17.8679
14.9952,0.102851,17.4173
15.9811,0.0786536,18.5527
15.5224,0.124664,18.5646
14.2755,0.18354,18.3782
13.0694,0.271344,17.7378
12.5303,0.0971974,14.531
12.7273,0.0016684,12.5628
10.9044,0.0315707,11.7499
9.25368,0.0165808,9.76654
7.99768,0.0104343,6.93769
6.95526,0.0403621,5.9681
6.96802,0.0818852,5.98742
7.74316,0.118203,5.8028
8.77238,0.322108,5.60564
10.0796,1.16688,4.16017
11.0463,2.92026,2.29453
11.0413,5.62633,0.94788
10.5618,8.56347,0.218797
10.4477,11.1119,0.000281821
9.83904,13.1852,0.512288
8.32845,15.4958,1.42612
6.33409,17.0604,2.25277
3.90109,16.9412,4.27297
3.13819,19.8897,7.00781
3.22903,24.4817,9.63166
3.56195,28.696,12.1611
3.59018,32.3025,14.6177
2.19716,31.6101,16.9828
1.04899,29.5133,19.6587
0.445607,28.3231,23.0871
0.030268,26.7791,26.2344
0.114363,25.0103,29.2536
0.447337,24.3572,31.3887
0.999218,22.2788,31.4279
1.60896,20.0949,32.7473
2.12628,18.7986,33.5326
3.33636,16.4801,34.8066
4.98389,13.7385,36.3131
6.433,11.1113,35.6535
7.23158,10.1479,35.6189
7.32523,10.0397,35.754
7.43442,9.36499,33.7012
7.97774,8.51441,32.4921
8.6882,7.44784,32.2114
8.3455,7.34906,30.7083
7.51509,7.20032,29.4399
8.5736,5.02046,27.2685
11.5227,2.87678,25.0612
13.3322,1.61504,22.8955
12.2395,1.40943,21.5515
10.9998,1.36006,20.7178
11.7594,0.660503,18.8136
13.9101,0.152612,16.5863
15.1976,0.00259581,14.3412
13.9202,0.0710845,12.212
11.8286,0.0808969,9.6629
11.1946,0.228671,7.69466
10.2793,0.254737,6.98257
9.98606,0.428564,6.3924
9.77772,0.820487,5.12462
7.63792,0.446243,4.39831
6.6727,0.307424,4.23454
5.64639,0.139244,3.95684
3.00697,0.0447202,3.42275
1.02391,0.503157,2.77449
0.0327816,1.71529,2.18831
0.360433,3.39733,1.50618
1.35351,4.37434,0.907575
2.06869,4.38321,0.465466
2.8042,4.41227,0.215966
4.12799,4.58613,0.00994332
5.79068,4.90486,0.0502303
5.18386,4.11953,0.068345
2.15518,1.92621,0.0255816
1.43673,1.05399,0.0194293
1.94743,0.670412,0.245368
2.40754,0.369202,0.798304
2.24485,0.10218,1.27822
1.82402,1.01703e-05,1.77252
1.87019,0.094094,2.6114
2.99623,0.0792647,3.98884
6.96303,0.0529612,5.5843
12.5123,0.856026,6.58159
16.5664,2.85157,5.98037
18.1363,4.26329,5.08401
19.4532,4.81538,4.81303
22.9241,5.84318,5.44243
26.2504,6.42833,6.65924
26.8322,5.79393,7.45963
23.597,4.0413,7.94289
20.5067,2.39065,9.22616
19.8309,1.16324,11.702
19.7043,0.464946,14.0908
18.0582,0.0619519,15.6899
15.6029,0.0130374,16.0101
15.5595,0.0101544,16.6042
15.3221,0.0216503,17.3652
13.5646,0.14644,17.6327
13.0453,0.288601,17.9281
13.0756,0.269707,17.4161
13.3731,0.141622,16.2119
13.4232,0.134726,15.551
12.5036,0.263201,16.0225
11.5477,0.366629,16.0319
10.1716,0.372529,14.5587
8.13654,0.341929,11.8772
6.97995,0.208529,9.40874
5.69395,0.144346,7.56586
3.67562,0.372399,6.38808
1.80599,1.02182,5.69799
0.909684,1.62721,4.99785
0.774664,1.5433,4.32425
0.58068,1.34062,3.93287
0.387779,1.50034,3.65249
0.125362,2.29698,3.79057
0.000146046,3.54694,4.12018
0.0173003,4.6674,4.32809
0.0392093,5.53193,4.66117
0.0187965,5.81459,4.96839
0.0219409,5.64403,4.62444
0.108534,5.19958,3.7661
0.152129,5.14939,3.40558
0.132851,5.09076,3.16411
0.0665145,4.13932,3.127
0.0749309,4.0047,3.25354
0.0295699,3.55787,3.31136
0.0390885,2.30216,2.99201
0.183872,1.67508,2.71831
0.490498,0.959539,2.97087
1.01935,0.517677,3.26152
0.801811,0.650595,2.99212
0.210401,1.45282,3.02129
0.0186149,2.85503,3.7105
0.0801651,4.62533,3.6021
0.608481,6.66492,3.37497
1.26153,9.57799,3.92372
2.24792,13.0912,4.1674
3.60722,16.4981,4.51078
5.04333,21.0913,5.47276
6.08262,25.4217,6.34304
7.88379,29.8806,6.87975
9.01541,33.2975,7.44868
7.98865,32.8559,8.46512
8.03982,33.1302,8.78786
8.34394,34.8659,9.21095
9.3542,35.7474,9.04455
10.8239,36.9506,8.06799
11.4294,39.3,8.20073
12.5625,41.9613,8.25164
13.3446,41.4427,7.94804
11.7143,37.8055,8.2696
8.53461,33.8512,8.29218
7.55078,32.4937,8.56903
7.27869,30.6762,8.33321
6.7597,29.6663,7.58948
8.02797,33.2674,8.21946
9.63702,35.2549,7.95395
10.3161,35.1391,7.23457
12.1133,38.4404,7.36604
14.3686,41.303,6.78343
14.6283,39.878,6.47399
13.7544,38.5636,6.53972
12.4393,40.109,7.71633
11.5585,40.4567,9.2189
12.6035,42.8895,9.20439
12.9494,45.3394,9.53542
11.0106,40.5405,9.2037
10.1615,36.9904,8.52367
8.71383,35.8097,9.375
5.81776,32.5809,10.8852
3.8537,28.4191,11.2071
2.43116,23.9027,10.8745
1.32333,20.5607,12.3956
0.523407,20.1052,15.5177
0.162689,20.8323,17.1097
0.639901,23.5838,16.0892
1.69502,25.7421,14.3432
1.22917,22.8215,13.7541
0.528941,21.263,15.2881
0.227759,22.5879,17.5163
0.148447,24.3254,20.3923
0.0627597,26.2623,23.4342
0.0268752,23.9466,25.6783
0.650743,18.9473,28.932
2.54425,16.794,33.7584
5.10421,16.6096,39.5967
5.22489,16.5791,40.054
2.98057,17.5487,35.8628
1.60492,18.4456,31.8983
0.99507,18.4319,28.0179
0.811061,16.1671,24.168
1.74673,10.7565,20.8448
2.78286,6.2762,16.9593
3.41676,3.6939,13.7287
3.66008,2.28479,11.6663
2.31077,2.31914,9.27071
0.839256,3.4482,7.58333
0.00643299,6.11018,6.5844
1.01424,11.5229,5.7218
3.07868,15.9389,4.77595
4.70055,18.0368,3.93236
6.98748,19.8859,3.19071
7.95457,19.7109,2.51757
8.61838,18.3449,1.45615
11.3522,19.2685,0.754955
15.5573,22.6406,0.490551
18.8072,24.5908,0.272169
19.3565,22.5655,0.0772585
17.187,17.1599,0.00122526
14.0236,10.504,0.196473
11.085,5.12538,1.07167
8.8574,2.44713,2.33936
7.11732,0.618533,3.68194
4.85635,0.0735051,6.00069
3.11436,1.26552,8.29794
4.00067,1.22415,9.36415
5.77932,0.815243,11.1052
4.19738,1.995,12.308
2.27127,3.88554,12.3275
1.50955,5.68129,13.242
1.8004,5.79143,13.8512
3.68218,3.58491,13.9956
5.8154,2.04754,14.32
7.63139,1.479,15.5781
9.12559,1.11723,17.0931
9.58602,0.875619,16.3245
10.9369,0.649414,16.2132
12.358,0.361914,17.2062
11.1863,0.857467,19.2321
9.89657,2.194,21.6962
8.53321,3.22109,22.5389
7.25147,4.57601,23.4548
7.59388,5.52145,25.4008
7.63792,6.034,27.1833
7.77627,6.04143,29.0599
8.27853,5.60632,28.9886
8.14935,6.33413,28.8554
7.40231,8.1851,31.4699
6.54078,9.88683,33.3439
6.40591,12.3765,36.9293
6.23186,15.1711,41.0895
6.39742,16.0689,42.6012
6.78791,16.4166,43.5807
6.36766,17.0738,45.0249
6.62236,17.1083,48.5985
6.995,18.3458,51.0106
6.47562,20.564,50.8261
5.75924,22.5761,51.0324
4.86681,26.3621,52.0287
3.84049,30.7783,53.6253
3.26891,33.5223,56.2066
2.76646,38.109,60.6621
1.2122,48.685,63.3491
0.170993,57.5381,61.4784
0.00555609,60.2812,61.4016
0.0100991,61.4981,61.4723
0.073911,62.7439,58.7473
0.169897,64.0186,56.8621
0.295578,64.25,55.1548
0.472174,65.1531,53.9174
0.767415,67.1835,52.8263
0.928893,66.654,51.1526
0.616446,61.5231,48.5343
0.388149,55.9734,46.9939
0.320039,52.5733,47.2803
0.282648,51.3474,47.2698
0.299222,51.4613,44.4236
0.235699,52.7315,44.5601
0.133563,53.3837,47.588
0.203116,54.75,48.2465
0.58217,58.0435,47.0646
1.48848,61.787,43.7569
2.12214,62.5516,41.8572
2.29051,61.9615,40.8104
3.30615,66.2231,38.84
4.95541,70.3277,38.2234
7.04829,74.2625,36.3778
11.9161,86.7318,33.9194
19.3245,105.099,33.4186
25.5315,116.751,31.7214
28.8429,117.19,29.639
25.4049,109.469,29.8725
21.0415,99.5356,29.5239
19.3181,90.1274,26.4631
17.4355,78.2102,21.8497
15.7155,64.248,16.7924
14.3521,52.4508,11.8513
13.8489,43.0164,7.67842
13.3021,35.612,5.01414
13.1627,31.8234,3.33273
15.1044,31.4579,2.43264
16.1244,31.2909,2.32928
16.5148,30.8993,2.13037
18.8129,32.79,1.64865
20.8139,34.4552,1.50963
23.0655,34.7473,1.32937
27.5536,39.4474,1.23451
35.7339,48.876,0.99628
46.7966,56.6345,0.442927
53.2253,58.2997,0.1432
52.5556,56.0431,0.05833
47.5655,50.8407,0.0346545
44.8095,45.8714,0.00299072
48.4575,47.4307,0.000361473
52.893,50.6863,0.00229854
49.91,47.1197,0.00791909
45.4906,42.327,0.0195956
43.2029,37.5987,0.154909
39.1039,31.0627,0.447774
36.6649,27.5516,0.700834
34.7646,24.6012,0.97182
31.7774,20.297,1.27388
28.2157,17.3155,1.18949
27.6669,17.3498,1.01839
28.5371,18.1518,0.949625
25.6452,16.6398,0.793322
21.146,13.5051,0.662042
17.9559,11.874,0.660355
17.42,11.435,0.912641
18.4369,11.0531,1.19689
19.3765,11.2627,1.21482
17.4453,10.0327,1.1353
14.2552,7.4004,1.23923
12.6609,5.00731,1.59729
10.6325,2.8654,2.13875
8.8646,1.44135,2.83963
7.97354,0.531313,4.50875
7.27191,0.076818,6.40236
6.48552,0.00268836,6.69473
5.19631,0.114872,6.65539
4.50108,0.309985,7.33736
4.44126,0.556838,8.31703
3.87526,0.980322,9.04675
4.02727,1.55694,10.6268
4.83093,2.39584,13.6002
4.0774,3.9631,16.6055
3.19444,6.44157,20.2849
2.9742,8.94333,23.4202
2.61046,11.197,24.4674
2.41032,12.9275,26.0649
2.47596,12.7777,26.2397
2.44632,12.193,25.0615
2.26651,12.3963,24.759
2.1588,12.4551,24.7096
2.40171,11.5102,24.263
2.88651,10.2483,24.023
3.37605,9.37573,24.2475
3.49546,9.18755,23.9664
3.1978,9.3041,23.5141
4.04351,7.18498,22.2457
8.8249,2.41449,20.5915
15.1881,0.22136,18.8912
15.5453,0.0550032,17.6904
12.1694,0.329202,17.3364
9.72628,0.933104,17.1858
6.77686,2.15158,16.3696
3.46852,4.46647,15.7597
0.944636,8.34584,16.1628
0.0694344,12.9078,15.5736
0.00111362,16.8323,16.225
0.145077,23.3176,19.3161
0.539755,29.8302,21.4054
0.814087,33.461,23.0817
1.06382,36.0912,24.6197
1.07186,37.0262,26.0816
0.27517,33.1666,28.2848
0.0074457,28.0721,29.4735
0.260126,24.7729,31.2716
0.626648,22.8522,31.7984
1.0712,20.5278,30.542
1.1617,19.3745,30.134
0.987618,20.4222,29.9426
0.937679,23.1975,32.3587
0.329167,28.2197,34.3782
0.0526037,30.9733,33.8003
6.29574e-05,34.9033,34.5113
0.0960134,38.8205,34.3042
0.156898,36.564,31.9398
0.115556,34.5095,30.5165
0.0672327,33.7442,29.8038
0.000146415,30.5434,29.435
0.0719742,28.1583,30.2496
0.0146268,27.8571,28.2332
0.144705,27.9802,23.8861
0.44437,26.9472,20.2545
0.351417,22.7269,17.7195
0.148879,18.2726,16.2159
0.0338188,15.6957,14.5715
0.00556292,12.8819,13.9528
0.143709,10.1775,13.2708
0.589434,8.19768,12.9136
1.5593,6.47702,14.1686
1.86099,6.29471,14.3393
1.15408,6.94147,13.0147
0.525811,7.84912,12.6945
0.321525,8.73479,12.6734
0.577638,7.59989,12.1451
1.00434,5.7098,11.499
1.0195,4.89027,10.672
0.273364,5.99105,9.16075
0.101644,9.4006,7.82545
0.665174,12.3796,7.47672
1.53951,14.3798,6.8889
3.40195,18.3307,6.46258
5.29191,23.2849,6.42802
7.39749,26.6415,6.02778
10.5049,30.4258,5.02682
14.7757,34.66,3.98954
19.5373,38.8092,3.52038
26.718,46.787,2.90092
32.6814,53.44,2.37567
31.8501,54.712,2.70918
31.5418,55.685,3.09957
32.4163,56.5908,3.49343
30.4726,56.8709,4.41451
29.8161,58.9182,4.8463
29.9562,60.7402,5.21455
28.2471,59.3415,5.52809
25.0915,52.741,5.33894
20.7179,44.5779,5.03904
19.5145,42.5729,4.54987
19.6857,42.4445,4.22757
20.6016,42.7078,3.59706
22.982,43.831,3.23518
24.8721,44.9972,3.42958
26.8709,47.52,3.09559
28.6841,49.2193,2.69826
29.7014,50.7298,2.72873
29.9271,50.7818,2.73756
30.7509,50.2951,2.66189
30.8535,49.9342,2.23611
30.5754,47.7298,1.66546
30.2463,46.5995,1.75796
29.4222,45.2453,1.69152
26.9326,39.6855,1.21943
23.2928,33.582,1.01489
20.6171,27.846,0.626358
18.2644,23.8845,0.320989
17.4322,22.7876,0.27469
17.2477,21.9362,0.392898
16.034,20.8305,0.362061
15.2706,20.167,0.22781
14.5354,19.3122,0.327733
13.5243,18.3554,0.433693
12.7721,17.0682,0.320712
12.1987,15.6873,0.242895
12.5482,14.8595,0.126065
14.1089,14.8551,0.00520469
15.2498,14.1972,0.0176392
14.3962,13.3982,0.00374207
12.7401,14.4316,0.122921
12.4245,16.6465,0.281514
12.6817,19.5441,0.702675
12.4097,22.223,1.22578
12.9029,24.0425,1.59822
11.0533,24.3566,2.51428
8.40056,23.6545,3.53121
9.12734,24.6807,3.73755
11.0538,27.1251,3.37588
12.2759,28.4296,3.84396
13.5046,30.7548,4.36043
14.2649,32.867,3.43693
13.2689,31.4391,3.41152
12.1922,30.8712,4.16761
13.6516,36.6762,4.99298
17.7822,48.1683,6.53657
22.5072,60.9703,9.05795
28.7048,77.5757,12.2325
39.0643,107.288,16.3879
51.7215,145.863,24.2357
63.4609,183.732,33.8629
76.0326,229.752,41.2558
88.7024,280.591,52.4694
93.191,317.155,66.5829
91.447,335.543,77.4041
96.2115,359.488,83.5229
100.028,372.44,85.6497
97.0121,354.436,79.5988
97.6169,327.162,65.128
91.6993,282.846,48.1874
77.0782,237.782,36.1063
65.8721,208.167,36.7306
54.4728,180.675,38.1603
37.78,141.611,33.0186
20.872,92.9087,25.8457
6.79761,40.7793,14.7613
0.0420696,3.36551,4.68792
12.6812,12.6436,0.000134483
52.8104,104.676,8.57592
139.508,354.625,52.3402
282.123,815.653,198.843
464.576,1443.42,328.828
674.379,2176.83,411.474
897.219,3036.57,613.933
1149.62,4054.35,863.03
1467.6,5262.8,1154.78
1851.49,6674.63,1485.12
2228.37,8242.55,1886.91
2543.08,9836.81,2351.69
2811.76,11309.4,2811.9
2991.62,12464.9,3352.53
3054.29,13295.5,3742.51
3033.97,13882.8,3898.14
2895.72,13937.4,4082.96
2688.58,13532.5,4131.58
2489.43,13027.1,4095.12
2245.56,12399.3,4056.28
1932.15,11394.5,3901.2
1645.93,10318.7,3678.7
1406.02,9383.39,3490.38
1181.02,8450.42,3289.6
969.864,7508.12,3059.57
767.267,6565.37,2822.34
579.251,5700.18,2623.98
411.666,4916.71,2458.2
265.566,4064.51,2235.98
134.684,3049.16,1893.05
51.863,2170.08,1542.87
13.4057,1528.65,1236.19
0.362171,974.412,933.88
5.78769,507.443,591.757
37.2142,177.167,301.577
97.6615,13.0294,159.511
168.908,32.6776,56.9166
246.416,207.522,1.74613
350.668,580.303,27.7602
493.266,1205.45,155.832
652.044,2010.5,367.842
810.084,2893.67,635.148
935.104,3663.38,885.774
1006.23,4244.22,1117.33
1061.94,4774,1378.03
1150.5,5460.26,1628.79
1278.44,6360.98,1921.4
1359.12,6989.47,2169.73
1342.76,7022.49,2207.75
1281.93,6774.76,2145.74
1215.5,6471.08,2061.74
1141.27,6080.16,1949.35
1043.93,5574.79,1790.17
946.469,5061.01,1629.36
861.938,4618.59,1491.24
777.674,4193.69,1352.51
690.588,3768.24,1225.69
608.208,3384.19,1119.85
558.851,3097.54,1018.86
531.255,2881.77,925.938
508.456,2679.62,844.469
488.451,2499.9,776.476
448.392,2306.88,717.904
406.321,2128.06,670.233
380.473,2008.57,642.432
359.467,1891.03,606.456
326.969,1736.79,551.784
295.684,1603.38,512.988
282.256,1512.99,486.123
262.585,1399.25,449.995
237.994,1275.26,412.228
218.882,1175.27,378.132
202.523,1078.99,346.171
185.966,987.055,314.177
160.071,887.59,293.332
135.397,786.56,276.873
118.81,710.713,248.649
107.748,660.202,230.871
102.398,624.706,221.47
95.3802,589.761,210.574
87.0017,560.694,205.415
82.9821,545.478,201.813
81.0635,536.613,199.253
76.9215,527.81,199.263
71.789,514.365,199.916
64.4152,489.215,201.255
53.5231,443.944,190.487
43.094,394.151,175.13
31.0246,341.764,167.953
18.6066,288.871,160.156
11.8937,245.12,147.727
8.96597,213.161,133.685
6.43197,186.099,122.025
3.99902,158.939,111.163
2.12828,135.015,100.999
1.22321,117.193,96.1663
0.997438,105.541,88.1159
0.609208,93.0499,77.2881
0.157151,82.6264,72.9724
0.0208276,76.4077,71.5214
0.0260721,71.9846,72.4961
0.213872,66.6948,73.3472
0.306157,63.393,71.6112
0.569157,58.5182,69.9057
1.74024,47.1558,65.9537
3.72817,36.6822,64.1627
4.23894,29.1438,58.0839
4.21823,20.5854,44.1348
7.05339,10.8944,36.4342
12.9748,5.04055,34.3387
18.4561,2.36571,32.9846
22.2591,0.994027,31.3655
25.6876,0.237287,29.1609
30.0392,0.0342015,26.8371
37.99,1.3549,24.6254
46.5013,4.30998,23.0701
50.7891,6.7926,21.0504
47.5322,8.55127,16.2426
40.1907,9.34828,10.8493
34.0826,9.2801,7.59627
27.1359,7.8584,5.80165
19.4786,6.01932,3.88367
13.346,4.47009,2.13773
8.81139,3.34807,1.0626
5.77536,2.76728,0.407006
3.39126,2.19975,0.0355464
1.13391,1.22098,0.0615727
0.135141,0.628025,0.325883
0.12259,0.24033,0.848279
1.61535,0.0309635,2.02894
4.9478,0.00056082,4.41798
8.64631,0.0150505,7.42067
10.8164,0.0143111,9.69822
11.9386,0.00421739,11.1079
12.6237,0.0346091,13.0805
12.7618,0.291774,16.5193
11.9001,1.01089,20.1143
10.5063,2.54997,23.9299
9.50409,4.65942,27.3377
8.34778,6.54765,28.9973
7.19996,7.83583,29.7559
6.81091,9.4036,32.3404
6.06358,11.7314,34.7595
5.7427,12.5608,35.4081
7.14805,12.4361,37.7823
8.55198,12.0331,40.3315
8.31272,11.6329,38.9428
7.16585,12.7193,37.4017
5.88071,13.7548,37.7534
4.0848,14.5059,34.8114
2.15499,17.28,31.2791
0.856788,20.1343,29.2074
0.233261,20.7563,25.8981
0.00534655,21.8515,22.8183
0.0812619,22.4345,19.4705
0.377913,23.0077,16.9672
1.29102,26.9875,16.222
2.8686,33.8988,16.1974
4.55306,39.8084,17.2276
6.1006,43.044,16.2472
7.51959,44.9028,14.4885
9.38489,46.3815,13.5426
11.4883,46.7722,11.9308
13.7833,48.7721,10.7911
17.1591,52.1659,9.48087
20.1319,53.4847,8.24195
22.0543,55.8237,7.48432
24.5634,59.1831,6.33997
30.3579,65.8417,6.22576
44.6366,82.6685,6.05036
65.2201,106.18,5.24484
82.2725,124.853,4.68396
93.8417,134.086,3.70634
101.019,134.402,2.26885
106.213,129.473,1.07518
102.207,118.921,0.833252
89.143,103.511,0.749978
79.6668,88.3794,0.0723513
76.1175,77.5059,0.027622
72.4494,67.2822,0.105593
71.6757,58.1848,0.679437
74.641,51.2648,2.21689
76.2313,43.6697,4.56778
79.7506,37.0821,7.62389
81.3334,31.7974,11.1031
81.531,27.2857,14.8652
75.1129,19.5425,17.9694
62.7092,11.7249,21.5745
53.9257,7.59829,22.9338
47.0913,4.7408,21.2798
40.2882,2.24168,22.6911
33.8902,0.533362,25.1502
28.3071,0.00803903,26.1357
23.1264,0.0982102,25.6907
20.1927,0.329237,25.5962
20.1265,0.373647,25.7728
20.5116,0.352793,25.6542
21.0803,0.26833,26.021
20.8169,0.173374,25.8112
20.1531,0.192235,24.2246
20.9084,0.0400782,21.5346
19.4749,0.185314,15.884
18.4815,1.42316,10.2723
21.326,3.69959,7.34869
24.3367,5.9809,5.85455
26.863,8.09438,5.10654
29.7345,10.9789,4.27647
31.4897,13.788,3.53832
32.4067,16.3264,3.14735
33.0496,17.9804,2.45592
32.3264,18.2165,1.67872
29.8356,18.5255,1.0112
26.0314,19.1617,0.423802
22.375,19.5952,0.113059
20.113,19.7635,0.000115395
17.7048,19.4845,0.0964962
15.542,19.8315,0.324282
14.9476,21.8056,0.832166
15.0486,25.8277,1.65477
14.8443,29.3744,2.51317
13.7433,30.929,3.48172
12.3294,32.7755,4.82771
11.8297,35.1804,6.12898
11.9023,38.8979,7.71635
11.1991,41.3234,9.49252
10.7556,43.1844,10.607
11.267,46.3688,12.0113
11.4528,48.4266,13.6589
10.5989,51.9816,16.5245
10.1489,55.9761,18.7951
9.54261,57.9214,20.0847
8.76417,60.1053,22.7374
8.71662,64.0501,25.7204
7.71296,65.5515,28.0537
5.64867,63.3711,30.2424
4.55468,61.211,32.3991
5.4191,63.4719,33.1738
6.7771,68.634,33.0781
7.44913,71.4951,33.2644
7.51876,73.8187,34.8912
6.37521,71.9301,35.7903
4.66746,68.0485,35.644
3.57435,64.1084,35.857
2.64991,57.1966,35.097
1.95827,50.7234,32.9874
1.39927,46.5796,31.379
0.827385,43.8114,31.9814
0.538276,43.3011,33.663
0.430945,43.1128,34.5642
0.460794,39.8927,33.7408
0.488694,35.8209,29.1375
0.291033,32.5351,26.0672
0.161917,31.3942,26.6688
0.197285,33.5221,27.9969
0.572524,41.0826,31.0104
1.67963,50.7717,33.3137
2.48321,55.8421,34.7678
2.708,59.5504,37.0745
2.99246,63.9486,38.6514
3.02305,66.621,40.8347
3.04469,68.4157,42.6468
2.86984,68.6139,42.6373
2.09056,62.3072,40.6831
0.878048,52.6966,39.7201
0.140923,47.0791,42.0756
0.0383559,46.7062,44.4574
0.0150431,45.1523,43.498
0.104141,36.6009,39.7253
1.14436,23.7539,35.3651
3.82496,13.2797,31.2642
6.94826,8.48091,30.2623
8.34875,6.00092,29.0417
8.3231,4.53725,25.8491
8.39846,3.31159,22.6024
8.93402,1.96084,19.6135
8.7714,2.31478,20.3876
8.24265,3.55286,22.7743
7.66599,4.01136,21.9833
4.91859,5.2722,19.3865
1.35337,9.16472,17.9241
0.136141,14.1061,17.41
0.0596643,15.1883,16.7231
0.392305,12.9396,17.394
1.79796,10.4785,20.4333
4.91297,7.30449,24.2659
8.25492,3.84372,24.0651
10.8165,1.42538,20.8028
13.4125,0.258649,18.4888
15.5842,0.00167478,16.42
17.5072,0.153268,14.1823
19.9211,0.950369,12.2558
23.8628,2.59539,10.3845
25.503,4.77541,7.9727
23.8597,6.25519,5.73038
23.2918,6.32215,5.2572
22.1934,4.90107,6.33278
19.1093,2.73998,7.25406
16.3235,1.40947,7.58253
15.227,0.893443,8.25957
14.5601,0.696752,8.58226
13.6095,0.670137,7.92089
12.5202,0.692251,7.2009
12.1692,0.687182,6.96577
11.3042,0.743148,6.19538
10.495,0.933281,5.13326
9.73851,0.920236,4.48756
7.99359,0.682762,4.08276
6.81101,0.576664,3.60948
6.58713,0.71127,3.11423
6.43476,0.94704,2.6934
5.54645,1.10187,2.09676
5.09365,0.975042,1.79892
5.03581,0.631731,1.88448
4.09716,0.26694,1.95068
2.74773,0.0686405,1.75402
2.11642,0.0707757,1.44166
1.99664,0.0984877,1.14892
1.59407,0.0412846,0.999146
1.33146,0.00978571,1.09091
1.50878,0.000923887,1.29892
1.68192,0.0101114,1.55608
1.54634,0.0202677,1.79279
1.0703,0.0149832,1.65693
1.00227,0.0459483,1.59999
1.13272,0.0903042,1.87802
0.9052,0.0990344,2.06228
1.07291,0.0438724,1.96454
1.07887,0.012164,1.47878
0.526259,0.0271222,0.834715
0.209242,0.037441,0.434015
0.0507944,0.0363681,0.180939
0.000190536,0.00107226,0.0196105
0.0106221,0.0133988,0.0244141
0.117549,0.0445011,0.363541
0.229447,0.264753,0.958822
0.195571,0.464156,1.18191
0.33433,0.161034,0.966337
0.537085,0.000142382,0.559072
0.372673,0.000231436,0.405508
0.0877411,0.0326947,0.308508
0.0543378,0.0355637,0.246389
0.100613,0.0085081,0.193824
0.313794,0.0551536,0.138153
0.64265,0.199092,0.166705
0.479542,0.101966,0.144166
0.10828,0.0123125,0.0643174
0.063823,0.0809837,0.0126587
0.554421,0.533005,7.95443e-05
1.1585,1.15411,0.000906347
2.03971,2.16292,0.00409053
3.30834,4.04664,0.0582343
5.13644,6.79467,0.0649497
6.80864,8.52274,0.049637
6.726,9.33289,0.203432
6.38894,11.2646,0.662489
7.6399,14.1486,1.01656
10.1662,16.6383,0.846481
12.5035,17.852,0.560179
12.8037,17.2914,0.366879
10.9741,13.7929,0.215144
8.14462,9.88381,0.15404
6.74514,8.02745,0.102879
6.8623,8.07134,0.0551572
7.13919,8.78057,0.0569453
7.20337,8.96113,0.0712596
7.17403,9.29121,0.161384
6.69792,9.2225,0.27004
6.98976,9.18191,0.157109
6.08832,7.70932,0.0896588
2.51851,3.58029,0.0865205
0.716062,1.36683,0.148056
0.376989,1.39826,0.413947
0.627179,2.42028,0.700834
1.72711,4.77702,0.758711
3.37819,7.95158,0.815919
4.08251,8.34306,0.776384
2.99761,6.0611,0.659363
2.18424,4.35804,0.484447
1.90903,4.48381,0.511907
1.66298,5.14693,0.999832
1.77298,6.80066,1.71082
1.91294,9.52494,2.78383
1.30567,11.1592,4.77391
0.447325,11.3502,7.25283
0.00262856,9.6787,9.98268
1.17544,6.48838,13.2323
3.78196,4.08685,15.7973
6.90902,2.10565,15.8925
11.135,0.264137,14.5138
15.722,0.0907794,13.5377
18.9467,0.619139,12.6802
17.9795,1.28091,9.66584
13.8806,1.7277,5.34526
9.74149,1.59503,2.8816
6.56846,1.29785,1.81127
5.81496,1.73489,1.08739
7.20187,3.32282,0.661986
8.0701,5.51344,0.262548
7.09457,7.24373,0.000456511
6.53062,8.07288,0.0703278
5.54725,7.24012,0.134032
3.54811,5.3006,0.146464
1.91341,3.51686,0.414742
0.507914,2.03714,1.06544
0.00290313,1.31062,1.25917
0.0100668,1.12895,1.29654
0.0122426,1.15046,1.22857
0.0272861,1.69668,1.31842
0.00969648,2.14789,2.01059
0.267698,1.80579,3.28766
0.829531,1.58067,4.8193
1.18373,2.27095,6.59145
0.893938,4.20408,10.1828
0.772285,6.66271,14.6863
0.958877,8.32522,15.1966
1.10687,9.21129,15.8147
1.33083,11.1704,20.2189
1.48946,13.863,24.5396
1.57369,15.7341,27.0402
1.77678,16.9499,29.2719
2.21228,17.5327,31.8667
3.10056,16.7546,33.6668
4.6944,15.358,37.201
6.3419,14.1776,43.2981
7.63977,13.7836,43.6974
9.2406,13.3333,42.8021
10.5479,12.2576,44.0959
11.2269,11.4098,44.0943
11.3913,10.76,44.677
11.7074,10.8122,45.1256
13.1955,10.1194,45.2214
15.7643,8.57842,46.1668
18.1156,7.75344,48.0121
19.5747,6.68936,49.551
19.1744,5.57061,47.6457
17.765,4.98841,42.6929
15.7895,4.64843,38.0365
12.1252,4.96669,33.5626
9.30377,5.82011,29.9937
8.29487,5.609,26.9722
6.76257,4.83368,23.0698
4.77015,5.19923,19.976
3.53032,5.50798,17.5286
2.93452,4.84093,15.0322
2.81641,3.4877,12.4521
2.83829,2.20845,9.89537
2.51617,1.3348,7.19905
1.69046,0.735853,4.7937
0.937073,0.51452,3.35858
0.83664,0.332889,2.4478
0.894294,0.27634,2.10555
0.782662,0.295246,2.018
0.94105,0.0481725,1.35724
1.05827,0.00607018,0.80445
0.781906,0.0298777,0.619397
0.654367,0.0685766,0.354244
0.6938,0.11416,0.207791
0.3375,0.00973746,0.289931
0.0454622,0.111037,0.399641
0.0260918,0.147716,0.276998
0.00140099,0.156016,0.138277
0.0438277,0.313324,0.102933
0.409062,0.917662,0.0697483
2.11428,2.79262,0.0257185
4.13519,4.54935,1.87792e-05
5.65317,6.02202,0.0172522
8.63218,7.49793,0.123875
12.4129,8.40404,0.357448
14.2521,8.75071,0.62339
15.5191,8.66687,1.09857
16.7785,8.05761,1.70763
14.7079,5.02289,2.62686
11.0111,2.20437,3.38233
8.03964,0.550729,4.29707
5.33422,0.0268765,6.18289
4.04423,0.766159,8.66426
4.31398,1.61268,10.9934
4.59465,2.35933,13.4697
5.25585,2.60662,15.6618
6.58938,2.77017,18.012
7.50736,2.89684,20.341
8.76801,2.61525,21.695
12.9369,1.5195,24.5971
22.5776,0.157478,27.8278
31.9695,0.0212614,30.8718
36.5387,0.0660196,33.7561
37.0911,0.0121001,35.2559
30.8928,0.182683,35.7607
25.3782,0.626986,35.3914
27.0346,0.550706,36.394
28.797,0.648308,37.5715
24.02,1.66968,37.2389
17.5071,4.02904,38.4807
11.2081,7.48841,36.7263
5.34184,11.0431,31.6607
2.54065,13.9165,29.6782
1.69221,18.123,30.7553
1.04807,24.8382,35.1214
0.74767,29.0312,38.971
1.13015,28.2888,41.7587
2.09351,26.7669,45.0576
2.56264,26.4414,46.5785
2.71589,27.0665,47.8659
3.72462,26.3707,50.4326
4.71936,25.3668,52.931
4.14189,24.8971,49.9893
3.31841,23.0359,44.8868
3.08245,21.1648,42.1878
3.17077,19.627,39.3182
2.86473,18.5704,36.6756
2.39066,18.3133,34.7979
2.53293,17.2868,32.5062
2.59808,15.5433,30.1212
2.56536,13.8441,28.2192
2.35827,13.3652,26.5105
2.02733,13.7559,25.9028
1.977,13.5464,25.1395
1.8136,13.4828,23.6668
1.44066,13.3378,22.6919
0.817008,13.6049,21.5361
0.301288,15.12,19.7309
0.0761471,17.1272,18.4185
0.00127543,18.1309,17.289
0.0908461,19.1233,16.4345
0.342349,21.6547,16.2693
0.949507,24.2717,15.2196
1.75746,25.5996,13.6596
2.47225,26.2877,12.4061
1.88069,22.6224,11.3675
0.401051,14.188,9.64152
0.029312,8.35717,7.19676
0.0494739,6.66298,5.40158
0.149516,7.2551,4.92529
0.459024,8.49257,5.1014
1.41569,10.6201,4.67566
3.29007,14.3347,4.64021
4.7803,18.6147,5.52122
5.68238,22.9592,5.8484
7.19838,29.0523,7.16936
7.93799,36.9602,10.0838
8.80972,43.5955,12.355
11.3793,50.5424,13.6858
14.4279,59.4525,14.5181
16.7935,65.4441,15.6722
17.102,67.4934,16.749
15.3633,65.8908,17.708
12.8313,60.5187,18.6408
12.9308,58.8961,16.547
14.1546,58.7203,14.5712
12.9566,54.863,14.3746
12.1828,52.5104,13.3537
12.2986,51.3869,13.245
10.0886,47.5397,13.9311
7.23945,42.5919,14.4428
5.96822,40.5038,14.3669
5.39952,40.3529,15.1807
5.47014,40.401,16.5811
6.46222,41.2985,15.5612
7.52955,43.0192,14.5016
7.95938,44.4714,14.6124
7.84892,44.3664,14.334
8.07442,42.3201,13.0897
8.15311,39.5976,12.4278
6.96529,36.1386,11.679
6.60411,33.2922,9.95411
5.95408,29.7555,8.92837
3.49842,22.8758,8.93366
1.94377,17.555,8.24213
1.63877,15.7986,6.97629
0.973415,14.1417,6.84839
0.289894,11.1588,7.19783
0.0865766,9.00449,7.05226
0.037765,8.40749,7.16626
0.0162637,7.76322,7.55294
0.00510445,7.52411,7.43057
0.0201061,7.69001,6.81202
0.0801284,7.78849,6.80828
0.202319,9.20125,6.86909
0.531769,10.9051,5.97262
1.46437,13.3577,5.76576
2.69138,16.2723,5.91466
3.50535,18.0237,5.81238
4.21807,19.5778,5.81069
4.5213,19.8483,5.54428
4.59766,19.8613,5.37691
4.65939,20.3584,5.52547
4.53065,19.9825,5.92178
3.63389,18.0498,6.1958
2.75848,15.5166,5.34512
2.82706,14.7125,4.66291
2.81656,14.6137,4.46718
2.21589,13.2231,4.3058
2.01066,12.2069,4.19813
2.01196,11.2117,3.6246
2.1267,9.96076,3.04282
2.57185,9.27489,2.31928
3.49152,8.37354,1.09982
4.59162,7.79539,0.446733
4.74957,7.49434,0.196635
4.38855,6.46654,0.132117
4.44705,5.38258,0.0470803
4.69751,4.66298,0.0095278
4.17014,3.37055,0.0577859
3.21096,1.99216,0.133976
2.18842,1.08206,0.235344
2.04512,0.572385,0.506909
1.55053,0.0795313,0.862362
0.633952,0.0679388,0.951798
0.303654,0.317781,0.949001
0.0501721,0.850191,0.996219
0.0155869,1.69577,1.3778
0.198766,2.84848,1.5145
0.339738,3.44571,1.41825
0.228926,2.5092,1.25791
0.105618,1.75906,0.8987
0.0652885,1.44171,0.747126
0.145653,1.45634,0.78049
0.112552,1.74742,1.14201
0.0199043,1.6032,1.39336
0.000208805,1.32958,1.54705
0.16574,0.901364,1.93095
0.310036,1.21916,2.6868
0.098435,3.06528,4.151
0.0654992,4.27899,5.49531
0.259293,3.92395,6.57055
0.792887,2.92898,7.11651
1.32744,2.36355,7.43439
2.06812,2.19875,8.72672
2.88467,2.28354,10.9695
3.38031,2.66359,12.5157
3.35388,3.17111,12.8399
2.65983,4.17884,13.3111
1.86399,5.44706,13.4133
1.25622,6.93363,13.9214
0.840903,8.69375,15.2207
0.505009,10.2233,16.3015
0.200033,12.4174,17.1054
0.0228659,16.6899,18.4073
0.00347448,21.4451,21.7565
0.0159779,24.6888,24.1963
0.0359793,27.8079,25.3608
0.105128,32.0021,28.0763
0.184828,36.1378,30.0754
0.251444,39.0526,30.8714
0.449982,40.8539,31.4957
0.960018,43.5561,31.608
1.28221,47.082,32.7459
1.52131,52.6391,35.6585
1.77921,54.8015,36.9746
1.7536,52.5968,36.0979
1.92915,54.4048,35.5821
2.27942,56.671,35.1513
2.65214,56.6938,34.1956
3.19068,56.584,33.1837
3.70822,57.0198,31.8252
4.27764,57.862,30.9339
4.84012,59.2061,30.7427
5.48462,60.8067,30.126
7.20811,64.1869,29.1824
11.1063,73.6239,27.9335
16.4937,86.0337,27.1256
16.6291,84.5351,26.3156
14.3982,72.5276,23.0269
14.7875,63.7951,17.8342
13.7206,54.6407,13.8183
10.5323,44.865,12.0001
7.82087,37.536,11.3346
5.91937,31.2452,10.1089
4.36088,25.4915,8.85725
2.93699,19.6997,7.69811
1.39673,14.0519,6.53725
0.408477,10.6634,6.49921
0.240865,10.3283,6.99664
0.480166,11.7985,7.52554
1.16788,15.714,8.54284
3.1909,23.2245,9.44339
5.33998,29.1179,9.52083
5.14241,30.0486,9.80584
4.35844,28.9288,10.5007
4.24246,28.6162,10.5645
4.84974,28.8099,9.89732
5.54207,28.1374,8.7257
5.33394,26.2996,8.07048
4.4416,23.7715,8.02468
4.07166,22.7792,7.72979
4.62349,23.1445,7.13985
5.54309,24.0148,6.4135
6.57497,25.0862,5.87949
6.69455,24.5697,5.5351
6.37128,23.8894,5.42002
6.40175,22.2181,4.57206
6.9829,20.787,3.70135
8.54459,22.9033,3.37944
10.3542,26.659,3.35203
11.9978,30.3046,3.80112
14.3936,34.4756,4.25721
16.5859,37.8298,4.42035
16.5086,37.7898,4.54255
14.1014,34.9071,4.96543
10.6466,32.7281,5.95734
10.4607,33.0906,6.45354
12.6704,34.4758,5.63548
14.5943,35.9015,4.81893
17.2223,37.7274,3.98735
18.708,38.1096,3.15919
19.0272,37.0217,2.69405
18.3948,33.8354,2.16447
17.31,28.3226,1.42598
17.4623,24.8353,0.72045
16.2158,22.3358,0.549643
13.9045,20.0586,0.747852
14.0803,21.5972,0.906383
14.1621,24.7049,1.62193
10.4238,24.4383,3.269
6.86162,23.7716,4.90185
5.40228,21.8387,4.98051
4.87668,17.6115,3.8828
5.33112,14.3499,2.27955
7.19021,13.2754,0.806998
9.97723,14.0412,0.20021
12.4507,14.2974,0.0027201
14.2107,12.8684,0.0734182
16.3773,11.216,0.411183
17.4704,9.92736,1.09636
15.0734,7.46188,1.50963
12.0295,4.52601,1.71719
9.28842,2.22157,2.17499
6.87049,0.900321,2.81938
5.96795,0.496124,3.1252
5.28984,0.245973,3.30241
5.57591,0.241603,3.26679
6.65944,0.412162,3.23098
6.33497,0.403063,3.42786
5.75755,0.357521,3.41226
4.85827,0.137156,3.51912
3.5642,0.000830814,3.83834
2.58847,0.0949008,3.68557
1.93915,0.246351,3.56795
1.39426,0.307577,3.2626
1.65944,0.107596,2.9712
2.8292,0.000669718,3.04227
4.54798,0.156463,3.12253
5.80871,0.241543,3.64916
4.61493,0.0170086,3.94877
2.80088,0.225906,4.50513
1.45159,1.13745,5.41328
0.530779,2.87315,6.08735
0.0637036,6.02261,7.11594
0.11059,10.3955,8.09933
1.06653,16.3867,8.64875
2.94933,23.6442,10.0226
5.21608,31.2856,11.5804
7.61361,38.9952,11.7281
8.34257,43.152,13.4012
7.17108,43.5673,15.555
7.75548,46.4405,16.1785
9.15687,49.9501,16.1631
9.5183,50.1673,15.6242
9.79903,51.0986,15.8453
9.82809,50.8043,15.5542
10.355,48.3372,14.1496
9.74161,42.7186,12.4137
7.46521,34.4658,10.3782
5.74906,30.0566,9.86735
5.03836,28.5156,9.67718
4.81334,27.8918,9.5725
5.35849,30.5847,10.5247
7.28796,36.6477,11.249
10.1656,43.7301,11.2346
13.7847,51.1701,11.3449
17.7692,59.709,12.7372
20.668,66.858,14.2252
22.4282,73.4084,15.2172
23.1643,79.1459,15.8555
23.414,78.4166,15.1275
25.4258,77.295,13.7772
28.6359,80.2523,12.8521
31.9915,81.9571,11.5917
32.3756,80.3132,10.8214
31.0425,80.4459,11.3724
30.9508,81.5829,11.7712
30.6423,79.6761,11.9323
29.9089,76.6872,11.5699
29.1592,74.9033,10.602
27.8896,72.5708,10.1542
25.4024,68.7686,10.0778
26.0304,69.9924,9.80844
28.7988,74.6488,10.4054
30.3201,77.5488,10.5571
33.355,82.2779,10.6582
38.605,91.5402,10.9123
43.0756,102.265,13.5894
48.7285,117.242,18.0348
60.1428,145.547,19.0459
75.4622,185.897,23.7852
91.3941,226.975,30.3844
107.68,271.689,37.402
128.249,331.9,49.1592
146.753,401.433,63.6871
159.702,462.585,78.2585
168.606,499.203,87.6353
172.823,516.458,92.613
172.815,510.832,89.282
165.828,489.913,84.3367
156.27,462.842,80.3236
146.531,422.96,70.3611
135.574,386.757,63.71
120.654,359.2,62.5317
101.427,321.128,60.6624
74.6464,258.293,53.7672
45.3804,177.943,44.4909
20.9425,92.7811,24.995
2.90641,22.8064,1.73598
3.7706,1.75889,0.415342
38.3989,75.8677,5.23708
126.134,303.354,36.75
279.968,745.224,107.393
497.757,1416.66,231.48
743.294,2196.58,381.68
984.488,3001.22,542.136
1284.37,4041.84,763.747
1666.87,5373.94,1040.89
2028.71,6667.99,1439.3
2368.25,8007.28,1801.88
2686.5,9446,2046.64
2914.24,10680,2404.71
3053.83,11646.5,2752.64
3073.77,12266.1,3033.3
2980.03,12477.3,3225.98
2806.15,12259.6,3304.17
2571.32,11646.2,3249
2317.84,10936.9,3155.09
2013.32,10102,3109.27
1673.8,9055.8,2982.7
1405.68,8144.49,2768.83
1208.33,7411.59,2609.9
1044.82,6728.08,2447.65
869.57,5960.83,2257.53
686.805,5185.56,2080.42
529.73,4565.38,1972.92
389.231,3971.08,1857.56
252.929,3220.71,1659.18
134.337,2372.78,1329.15
55.9519,1662.18,994.693
17.0282,1147.59,840.958
1.28299,684.252,630.637
5.5445,292.835,375.343
41.4579,58.1555,196.657
104.25,3.70158,67.588
181.108,123.901,5.55974
287.684,439.253,16.2529
438.256,1005.68,115.41
628.563,1811.72,311.106
839.857,2813.8,640.543
1050.02,3852.91,929.349
1222.93,4742.17,1137.61
1329.41,5439.42,1382.08
1417.52,6088.53,1613.07
1529.98,6921.44,1931.42
1625.52,7863.2,2323.7
1641.31,8368.56,2577.63
1589.08,8313.02,2615.78
1510.99,8022.14,2566.4
1395.81,7523.61,2435.17
1263.66,6859.26,2225.39
1147.27,6183.49,1992.59
1036.48,5570.99,1784.97
931.416,4992.23,1600.19
833.745,4447.39,1428.59
747.649,3976.49,1270.85
688.252,3616.36,1139.89
649.42,3368.08,1051.11
616.902,3162.6,980.07
581.737,2963.44,921.706
538.431,2768.51,870.592
502.032,2588.89,810.165
474.687,2431.4,752.775
438.242,2252.16,694.08
393.675,2050.65,637.287
346.437,1848.11,588.063
299.748,1639.82,535.639
256.75,1442.22,479.699
221.043,1276.49,430.487
189.626,1131.09,388.498
164.851,995.757,350.969
144.425,877.72,313.79
126.6,788.974,282.288
116.917,718.383,254.813
112.215,656.104,226.306
106.215,601.213,201.106
100.349,555.679,179.971
98.3918,517.635,160.284
97.2906,485.851,144.565
93.905,455.492,133.595
91.218,422.864,124.217
88.2624,390.605,111.172
85.7105,365.931,97.3945
85.6658,346.218,86.8145
78.6124,311.56,75.387
69.2073,273.569,65.059
65.3251,252.958,59.5367
66.6733,247.515,56.2788
68.8194,242.807,52.2245
68.311,235.371,48.9791
66.781,229.52,51.0029
60.6486,222.462,53.1082
51.1316,214.13,54.058
42.8144,202.574,57.3545
33.8846,183.657,58.3516
25.6725,166.888,60.0862
19.6595,154.776,62.4991
13.3142,134.922,62.0541
8.76896,110.276,56.3727
6.36774,89.9788,47.256
3.75462,72.8385,46.7163
1.05832,57.6595,48.109
0.00402927,44.1969,44.5078
1.95648,28.5707,46.4497
9.61325,15.5544,49.606
17.2209,8.64003,48.7329
24.7437,4.4199,48.9885
34.5027,2.04785,52.5267
45.5275,0.773335,57.3693
56.8605,0.0117635,58.0606
65.8303,0.666121,52.3499
73.524,3.38458,44.8906
80.6022,8.26036,37.4316
82.0703,12.4301,30.9737
75.8299,14.3422,24.2717
64.7419,13.2822,18.8215
53.3638,11.6792,14.8957
44.6484,12.2201,10.4213
38.9241,12.9229,7.08358
31.5477,12.5051,4.21585
22.837,12.348,1.49914
15.1828,11.3618,0.203033
9.29405,10.0217,0.0314811
5.30188,10.4194,0.920998
2.21707,12.6975,4.34668
0.835176,16.4791,9.82809
0.453058,19.0638,14.0243
0.095494,19.2824,16.5257
0.0290604,17.4147,18.3516
0.429543,15.6489,20.3873
1.40646,14.1519,24.092
3.85749,10.5633,28.4175
7.81841,7.52327,30.4743
11.1283,5.84628,32.5768
15.3801,4.2958,36.4795
18.701,4.56791,41.633
21.6895,5.08367,48.1251
27.2274,3.94332,53.8245
32.7834,3.28294,58.1099
37.2175,3.11312,62.3063
40.3272,3.13102,65.7189
42.3755,3.46295,70.3181
43.1626,4.34808,75.4143
41.3982,5.96076,77.4989
39.25,7.28875,79.2816
37.1104,8.33949,80.5184
34.5863,9.4182,81.7306
32.5302,11.3972,83.3503
29.0858,14.004,83.42
25.8208,15.8894,81.5773
22.2217,18.3605,80.0022
17.3448,22.2407,79.2925
12.7319,27.3195,76.879
8.89539,32.1674,73.4654
5.5049,36.2928,69.1413
2.81182,40.7839,65.9638
1.03658,48.2781,63.405
0.0715654,55.3418,59.2862
0.127053,59.4077,55.4497
0.888776,64.7591,50.0891
2.7468,71.7135,44.2953
5.60965,77.4903,39.0764
9.62783,83.0775,33.2192
14.1053,88.0372,30.5441
19.0561,91.9136,28.0786
25.1574,96.2876,23.6368
30.1574,100.122,20.3573
36.8402,104.014,17.0493
48.0912,111.208,13.2134
57.5006,116.334,10.1935
63.6553,114.573,8.27984
67.7602,111.728,6.02194
74.8578,109.761,2.76286
82.9168,108.753,1.33381
84.1474,105.886,1.16298
85.5004,100.005,0.555382
91.491,96.4283,0.0698128
99.5385,95.6346,0.0223337
106.753,92.2428,0.483608
112.06,88.2073,1.52041
114.991,83.4869,2.58081
113.983,75.4748,3.73867
113.216,69.3689,6.41271
116.483,66.4513,8.7639
119.776,62.0954,9.15548
122.637,57.995,11.5564
126.302,53.3808,15.329
124.722,46.2419,18.3686
121.298,40.6484,21.1756
120.088,36.429,24.6586
119.579,30.6832,28.8872
116.453,26.6467,30.2656
110.681,25.5304,30.1459
110.11,25.5523,31.5687
114.684,26.9526,30.6537
119.399,28.7137,30.0558
122.125,29.2246,30.2974
118.402,28.684,29.3451
108.185,27.2596,27.1668
101.226,24.7771,25.5411
96.2746,22.708,24.7428
89.0444,20.7947,23.1788
82.4321,19.091,22.3557
80.8756,20.0743,21.3136
80.0966,22.2108,18.3171
75.6922,22.3392,16.0217
72.1933,21.5788,14.9096
68.7046,20.8256,13.4361
62.0711,18.9736,12.1587
52.9744,16.301,10.8976
43.9614,14.6637,8.09143
35.5873,14.4904,4.6427
29.2564,14.5764,2.42655
25.162,14.6807,1.33304
22.5031,15.0876,0.667865
20.0289,14.582,0.313837
17.3309,13.3699,0.220385
15.5767,12.8771,0.160239
14.9682,13.4556,0.113018
15.7545,14.8213,0.0201722
18.1843,17.0934,0.000914634
20.0283,20.7245,0.0394695
19.1343,25.4398,0.658422
18.3865,31.8146,2.29823
18.2355,40.9851,4.81752
18.9358,51.512,7.34306
18.7245,59.4946,10.712
15.6046,62.3829,15.0386
12.5557,61.6053,18.6511
9.41127,58.9097,21.8983
6.99278,57.8617,24.6776
5.63251,59.4557,28.1744
3.83466,59.0088,33.0123
2.538,60.0448,38.5356
3.02985,69.5987,44.2275
4.22444,80.5097,48.3298
5.20055,91.1552,53.0453
6.19777,102.744,58.4006
5.67503,104.906,61.6183
5.67038,107.788,63.2881
6.74219,115.782,65.5182
6.32768,118.897,70.3839
5.51027,122.243,75.6042
3.71187,122.352,83.5017
1.05904,112.102,94.0017
0.151517,100.837,94.2733
0.00663185,91.6988,89.0154
0.069073,82.4946,86.4239
0.227257,73.7243,81.175
0.216392,67.6983,75.169
0.0488986,66.0199,69.9147
0.00647129,63.4866,64.568
0.00507343,58.9468,59.5067
0.000208364,54.9192,54.517
0.0300097,52.2034,56.0352
0.158097,51.5926,58.5376
0.36987,50.6935,57.8906
0.682333,48.0869,58.7203
0.492134,49.8786,59.0071
0.0616333,56.582,59.3349
0.00383789,60.3468,58.2914
0.0199862,60.4771,55.7239
0.0437383,57.8477,53.6442
0.0045199,53.1223,51.8643
0.0181494,48.9549,53.1583
0.0764379,46.1813,53.6743
0.203006,45.3161,51.7332
0.493913,42.7494,51.9668
1.07095,37.7245,50.9304
1.90488,32.8659,49.2238
2.67301,29.3268,48.6146
2.55631,28.9886,48.6304
2.23392,28.4486,47.6279
2.53897,25.9651,45.3237
3.31737,23.4603,44.8787
3.70229,21.6483,44.3602
4.04714,20.2952,42.5504
5.02809,17.7508,41.34
6.79738,15.0139,41.5822
9.21959,13.8549,43.751
10.8417,12.6179,45.1203
10.2489,12.1915,43.5814
8.52804,12.2821,41.1462
7.55398,11.3731,38.104
7.81679,10.1459,35.9632
8.12793,8.85647,35.2513
7.55671,8.24782,31.7872
6.77015,7.51382,28.3572
7.03529,5.87058,26.2938
8.98764,3.57943,23.7798
11.2928,1.48937,21.6344
13.3697,0.399429,19.099
15.5033,0.0100165,16.5116
16.765,0.211003,13.8608
17.1542,0.751115,10.8987
17.6562,1.50419,8.95647
17.6894,2.49072,7.19562
16.1052,3.44265,4.87031
13.9745,3.3607,3.66445
12.27,2.61841,3.3344
10.8323,2.57954,2.70157
9.66584,2.97928,2.06465
8.48883,3.26605,1.63067
7.10138,2.97996,1.2318
5.99501,2.25142,0.84797
4.78477,1.61737,0.778792
3.52635,1.14472,0.650398
2.42502,0.78535,0.3442
1.40556,0.497157,0.215428
1.01167,0.415834,0.113748
0.854791,0.508474,0.0339312
0.85081,0.649586,0.00560168
0.845113,0.90528,0.00873194
0.627512,0.953406,0.0341733
0.733652,1.01224,0.0180468
1.06573,1.03674,0.000748515
1.30356,0.569894,0.152659
1.27012,0.249085,0.408058
0.97736,0.158655,0.424657
0.549085,0.0874746,0.255894
0.147558,0.0705242,0.0142309
0.00119026,0.13142,0.127445
0.0067592,0.343555,0.408292
0.0342269,0.321127,0.571554
0.507802,0.0794023,1.10279
1.49256,0.0284498,2.0285
1.76715,0.0805761,2.5309
1.3665,0.183819,2.56808
0.750582,0.38891,2.17668
0.565333,0.514826,1.97951
0.971196,0.290539,2.30731
1.56745,0.253476,3.12315
1.28048,0.728749,4.25428
0.966127,1.6336,5.39497
1.55193,1.29137,6.00548
2.26549,0.643574,5.92721
2.01291,0.979235,5.93501
1.21723,2.0468,6.41233
0.553223,3.64899,7.22454
0.137346,5.28994,7.40505
0.0154671,7.53592,6.79976
0.300953,10.2715,6.75662
0.519935,11.44,7.1545
0.840252,12.4124,6.88798
1.30087,12.5889,5.96397
1.3257,11.8461,5.50225
1.14758,11.1422,4.9423
1.10127,9.35854,4.18995
0.805758,6.65239,3.43173
0.389262,4.453,2.53144
0.171123,3.34656,2.31877
0.239396,3.26516,2.14662
0.764944,4.1413,1.63473
2.03804,5.91443,1.15916
3.65485,7.40497,0.681854
5.11755,8.98371,0.540046
6.285,11.3191,0.744333
6.8178,13.1902,0.899858
8.00427,15.8616,1.14782
10.6077,20.9893,1.66735
15.4925,28.1865,1.8922
20.5122,32.6485,1.48084
21.8809,33.8098,1.30277
21.2228,33.9755,1.39972
19.2828,31.4327,1.28453
17.444,28.4293,1.19004
16.5307,26.8927,1.13417
15.6574,25.2783,1.0037
15.6786,23.6777,0.767348
14.966,21.8221,0.63959
11.9976,19.0513,0.880753
9.56537,15.3949,0.668464
9.92938,11.7176,0.0841005
9.9499,9.17969,0.00532426
7.44975,7.13582,0.00520359
5.0386,5.99927,0.0475051
3.11806,5.14115,0.260063
1.46608,3.70082,0.603742
0.350133,2.191,1.03533
0.00440321,1.12652,1.47549
0.756779,0.434156,2.38617
2.84314,0.0423674,3.74011
4.92438,0.0104377,4.62992
6.38091,0.13116,4.51997
6.90118,0.29137,4.4485
7.84628,0.409121,4.77605
10.1166,0.615452,5.45361
11.2162,0.540372,6.43905
13.1538,0.626068,7.80818
18.6782,1.65518,9.08723
25.4592,3.80371,9.45495
30.4189,5.70018,9.82891
33.4035,7.0913,9.76057
38.2625,9.44993,9.28052
42.7709,12.6775,8.5084
45.9228,16.1709,7.126
45.0348,16.9536,6.25927
37.3848,14.585,4.48975
28.8947,12.1264,2.88786
21.0886,9.6258,2.3099
14.8262,6.46351,1.80183
10.3054,3.81669,1.57729
7.36568,2.52775,1.20279
4.97543,2.08972,0.564155
3.51989,1.93051,0.231243
3.78077,2.83022,0.0474735
4.02557,4.36324,0.00299323
3.07807,4.59486,0.177098
2.46567,4.80748,0.612619
2.14227,5.26838,0.816822
1.29035,5.15763,1.26576
0.533869,4.46309,1.82609
0.0186576,3.70267,2.82022
0.304993,3.07065,5.02535
0.734682,3.57816,7.65413
0.828384,5.46687,10.3114
0.946134,6.64594,12.1066
1.77298,5.87479,13.5974
3.55846,4.16002,15.7879
5.62543,2.6867,16.4479
6.83028,1.70293,15.4729
6.46898,1.39559,14.7299
7.07219,1.08483,14.2136
8.10819,0.812683,13.6839
9.4614,0.813343,15.2054
12.2455,0.589996,18.0871
13.7545,0.34779,18.3904
14.6915,0.183793,18.1585
15.512,0.0984015,19.2549
14.9167,0.0421071,17.679
15.0691,0.000472128,14.9573
15.3927,0.0410493,13.6718
15.3944,0.189635,12.4075
15.9563,0.336438,11.5762
16.7353,0.634548,10.9972
17.676,1.15168,9.84839
19.5579,1.65834,9.64043
22.3271,2.37083,10.0852
23.56,2.67156,10.2205
22.892,2.71589,10.0145
21.5165,2.95085,8.56216
19.1818,2.76631,7.34993
13.9454,1.57615,6.38376
8.43459,0.577221,4.63462
6.03001,0.354771,3.42874
5.31166,0.354826,3.11118
5.33977,0.227519,3.60082
6.17475,0.0572078,4.58267
6.92777,0.0526597,5.84163
7.88805,0.0780238,7.04626
9.1567,0.111057,7.12351
9.93357,0.164605,7.45863
10.271,0.131464,7.60157
10.4365,0.0852683,7.91402
10.7932,0.0443403,9.01062
10.2148,0.00141933,9.57922
8.58857,0.0826422,10.419
6.56019,0.406111,10.6099
4.21779,1.19042,9.98707
2.81131,2.25522,10.2326
2.39016,2.72172,10.7596
2.09893,3.11479,10.6714
1.27667,3.81213,9.43919
0.432448,4.71313,7.98759
0.0644142,5.15521,6.44521
0.0352622,5.13202,4.41003
0.300384,4.96601,2.72349
0.624692,4.05555,1.43129
0.939881,3.01288,0.558365
1.08363,2.2336,0.0902492
1.79473,1.54697,0.0454655
2.55531,0.829107,0.531981
2.97136,0.296441,1.38056
3.82528,0.131154,2.41824
4.71707,0.0737038,3.81196
5.56442,0.00564516,5.33581
6.65578,0.00763384,7.15825
8.33698,0.0541761,9.82427
9.55539,0.196338,12.238
10.1344,0.346477,15.1163
11.1676,0.423604,17.511
12.5923,0.51277,18.5761
13.4726,0.787461,20.8246
13.987,1.05111,22.793
14.919,1.08772,23.7001
16.2804,1.01347,24.7347
17.1201,1.062,26.3367
17.6014,1.20154,27.8858
18.2522,1.17225,29.197
19.3107,1.12673,29.9159
20.6595,0.962756,30.4846
23.0234,0.310478,29.3658
27.2006,0.00618245,26.5349
30.0148,0.15071,25.6068
30.6364,0.229752,24.8437
29.2011,0.278252,23.619
25.9716,0.263373,21.6724
23.5143,0.174596,19.6731
21.8996,0.043866,19.582
19.7111,0.000967049,20.2073
16.6941,0.100084,20.2038
13.7951,0.260484,17.8168
11.6163,0.355408,15.7148
10.1019,0.715859,16.0368
8.51136,1.36615,17.1243
7.75678,2.20754,19.2086
7.09877,3.9853,21.7341
6.07914,5.83241,23.6546
6.92618,5.37493,24.6433
9.82204,3.27985,24.9474
13.6797,1.63894,25.5418
14.8662,1.18799,24.0579
12.5832,1.50652,22.4909
9.96967,2.41743,22.6133
7.35464,3.94595,22.3996
5.46509,5.3994,21.5249
3.82564,7.23492,21.5774
2.20575,10.293,22.9419
0.93219,14.973,24.2913
0.253107,21.2065,26.0186
0.0943516,25.7788,28.4751
0.000398342,30.3393,30.5411
0.0929694,34.1967,30.9123
0.423872,36.5103,29.3112
1.51043,41.1892,26.119
2.24209,41.1695,23.3362
2.19366,38.8157,22.0346
3.11603,41.948,21.3189
5.75975,46.2017,18.7585
9.3369,47.7943,14.2074
11.7593,49.1016,13.3196
11.9837,49.711,14.3653
12.0266,49.8609,13.269
12.1343,53.0681,14.2517
12.0652,56.8262,16.7058
10.7282,56.6153,17.9174
8.13752,54.5285,19.7019
5.48669,52.1586,23.7213
3.33297,50.4898,27.6946
2.64101,50.4984,29.5367
2.78001,50.8112,29.1599
3.09723,49.8356,28.0596
4.37336,51.2169,26.4352
6.29975,54.4673,24.4924
7.79137,56.8175,22.7057
9.52903,58.9394,20.3668
10.934,60.3734,18.8741
12.5097,62.2953,17.9843
14.6273,64.105,17.5905
15.6872,63.3075,16.0398
15.0988,59.9913,14.8358
13.8014,55.6014,14.8058
13.045,51.2908,12.5472
12.4203,48.306,11.4625
11.8191,45.872,11.4563
10.9225,42.4727,10.4317
8.42336,37.2008,9.97492
6.49102,34.1878,10.0282
6.66175,35.2331,10.6913
7.09773,38.0384,11.8294
7.57896,40.5901,12.3502
7.34481,41.4335,13.8884
6.71545,41.7563,15.1015
8.06281,44.787,15.2159
9.38081,47.4248,15.3543
9.59894,47.4912,14.1867
8.90517,47.547,14.1362
7.60183,46.2778,15.0212
7.09532,45.49,15.8095
7.83263,48.3816,16.8274
8.98623,51.4918,17.3082
9.69064,51.3752,17.261
10.2663,50.4116,16.2228
9.87474,48.1609,14.4367
8.7881,44.7884,13.6504
7.80553,41.1559,12.8011
8.00069,36.8869,10.2919
8.68453,33.3463,7.53006
8.47474,29.1421,6.1357
7.30668,23.7731,4.94834
6.2034,19.7605,3.40549
6.6683,17.3138,2.21058
6.60419,14.8948,1.48212
6.81171,12.8603,0.840651
10.233,12.4745,0.157454
14.2102,13.4077,4.18574e-05
16.7266,15.1344,0.0214621
19.4192,16.5749,0.0952584
22.8012,18.8374,0.164111
24.9962,21.803,0.098105
26.8795,24.9582,0.0394574
30.2837,27.9026,0.0293525
32.4954,29.4563,0.0415516
32.5867,30.8874,0.0313837
30.9772,28.9251,0.046585
30.1035,25.1868,0.245307
29.4482,20.8292,0.779088
27.3224,15.75,1.64724
23.5104,10.2706,2.83079
18.868,5.52124,3.79761
17.1191,3.80029,4.57313
17.9206,3.21299,5.90435
18.8861,2.12623,8.28916
18.1634,1.01815,10.4513
15.5657,0.285087,12.0122
13.1734,4.82798e-06,13.5499
11.1237,0.271564,14.983
9.66859,0.77952,15.8804
8.41262,1.73727,17.2379
6.29486,3.6501,19.605
3.97684,6.1882,20.4252
2.81915,8.20729,20.6176
2.42926,9.59793,22.2083
1.79817,11.9317,24.0044
1.27216,14.8931,25.181
0.601775,18.9547,26.2259
0.0706377,25.0583,27.6618
0.072261,32.0923,29.1021
0.659809,37.3136,28.9673
1.37329,41.3421,28.4323
2.17411,47.1277,28.7275
2.67051,50.7808,29.1053
2.86783,50.2668,28.9904
3.17356,49.6718,28.0894
3.29119,49.4187,26.5861
2.84112,46.2124,25.487
2.15181,42.4192,24.5276
2.04711,40.9619,24.3769
2.38895,41.8803,24.7717
2.98286,45.4024,25.3964
3.265,48.0163,26.1023
3.61148,49.1762,26.0717
4.22105,51.1135,26.7401
5.41548,55.13,27.4309
8.22663,64.1307,26.4576
11.1989,71.4259,25.0098
13.7656,75.8772,24.7791
16.5529,84.0186,26.2009
18.8882,91.7101,28.2912
18.8527,96.4041,29.7906
17.6092,96.7355,30.3947
16.4952,93.6517,31.6603
15.0167,89.7465,31.4759
13.8094,85.9494,31.4805
12.1597,81.7251,31.1639
11.0838,78.3213,29.9234
10.2242,75.3955,30.1002
8.92809,70.7749,28.7188
8.55176,67.4939,27.1094
8.86524,64.9235,24.603
10.1652,66.0774,23.4337
12.2448,71.3206,24.0209
13.8325,72.5685,23.0993
13.4586,68.6005,21.845
13.6821,67.2194,19.6256
16.5278,68.8127,16.6834
19.4678,71.0389,15.4023
20.8769,72.8725,15.0076
22.1327,72.1718,14.2586
23.2941,70.4815,12.993
22.8965,65.6023,11.0014
22.15,61.3759,9.52942
21.9184,59.7691,8.74782
22.6843,58.0304,8.11106
23.3633,55.8457,7.29691
24.023,52.0919,5.94996
23.722,49.705,5.14354
22.7953,48.2178,4.96407
22.9258,47.8495,4.54076
24.3959,49.7645,4.26985
26.4622,50.6386,3.95217
26.4122,50.8222,3.84441
27.5118,52.7937,4.04284
28.8691,54.0157,4.26471
27.3214,52.9887,4.67079
24.8787,52.1248,5.31816
21.921,52.1567,6.48618
21.0459,53.6797,7.15915
21.6311,54.6791,6.83506
22.8523,52.8898,5.49356
25.1313,48.8182,3.56417
27.0278,45.8282,2.25027
30.3728,46.9642,1.52575
34.6636,48.0394,0.947887
38.9583,45.8979,0.300852
41.2643,41.987,0.00907895
37.9024,36.3885,0.00607137
32.4862,30.3441,0.0256207
27.2026,24.1452,0.0873348
22.1525,18.1494,0.147154
17.3716,13.2552,0.245239
12.7272,9.32785,0.273659
10.049,6.24481,0.459779
8.18541,3.98463,0.757396
6.14153,2.61515,0.76048
5.64287,2.12703,0.924882
6.29414,1.94915,1.21426
6.53345,1.78489,1.44131
6.46607,1.84749,1.38736
6.66775,2.0272,1.4094
7.20749,2.02707,1.70159
8.14146,2.02234,2.05261
8.28643,1.95081,2.11501
7.18269,1.80038,1.55678
5.73378,1.73739,1.02914
4.74392,2.01609,0.557567
4.24749,2.47485,0.23862
3.40693,2.25362,0.0760208
2.24282,1.5737,0.0317579
1.41384,0.855574,0.0773985
1.00032,0.463241,0.114624
0.641385,0.290292,0.147306
0.375263,0.099862,0.250993
0.233025,0.000102345,0.381391
0.124758,0.0897457,0.366648
0.0443403,0.209338,0.342394
0.00480113,0.223361,0.360099
0.0109681,0.236411,0.193267
0.0485517,0.437016,0.239963
0.103629,0.79411,0.382627
0.256056,1.14374,0.324057
0.442115,1.45553,0.310257
0.607434,1.53228,0.295346
0.52102,1.4036,0.227774
0.374768,1.18586,0.177586
0.231356,0.908971,0.182168
0.104205,0.704928,0.197068
0.0654484,0.579425,0.163123
0.0370993,0.431726,0.116106
0.00332238,0.271835,0.169488
0.00935729,0.16052,0.247398
0.00499872,0.0999681,0.169708
0.000845836,0.0788528,0.0894944
0.0169747,0.00108428,0.0240814
0.404294,0.307966,2.91774e-05
1.1733,1.29192,0.0176189
1.6127,2.28709,0.0808448
1.91118,3.09941,0.138624
2.25105,3.26577,0.121774
2.41739,2.67196,0.0306314
2.63956,2.40809,0.00407493
3.30721,2.16719,0.110793
3.36591,2.00986,0.20553
2.37055,1.48134,0.204418
1.76627,0.709727,0.286523
1.76294,0.464114,0.387608
1.36347,0.207068,0.531436
0.963534,0.0152647,0.77629
0.862532,0.000336395,0.938639
0.655305,0.0100195,0.924031
1.36579,0.0633881,0.91095
3.7224,1.17681,0.85758
4.53335,2.02642,0.659524
3.81017,1.46017,0.635533
3.1065,0.839141,0.778577
2.4395,0.50989,0.66495
2.15279,0.421045,0.505899
1.55374,0.206,0.521769
0.703954,0.000684807,0.615848
0.511132,0.0784164,0.899163
0.55946,0.124909,1.0099
0.494149,0.165858,1.08537
0.462867,0.170602,1.08559
0.316406,0.0303384,0.609637
0.242173,0.000945345,0.390301
0.271644,0.0138009,0.453417
0.126945,0.0286406,0.365162
0.0376361,0.0275663,0.112639
0.0676765,0.0140422,0.0847834
0.136863,0.0217717,0.239709
0.142151,0.0732818,0.387883
0.00917662,0.34309,0.450064
0.0664437,0.984285,0.548071
0.100007,1.6311,1.05241
0.117902,2.52164,1.66162
0.534744,4.10573,1.65414
1.41839,6.52425,1.75944
2.16503,8.75649,2.04762
3.47233,10.549,1.90496
4.94183,12.8847,1.80479
6.09947,14.8038,1.85756
7.2838,15.7418,1.8502
8.51534,18.406,2.01272
10.8823,22.1554,1.90521
14.157,24.9005,1.5438
16.4631,28.192,1.70604
17.1843,31.157,2.16559
18.0679,34.6984,2.61965
18.8176,38.9445,3.43576
19.3721,41.7218,4.22634
20.7195,45.1113,4.74479
21.979,47.9024,5.08393
23.4749,48.8261,4.90296
23.6583,50.6359,4.70062
22.5258,50.976,5.34854
22.8526,51.8164,5.9355
23.9732,54.3298,6.41635
23.513,53.8754,7.12041
19.8029,49.4083,7.17502
16.5073,44.4834,7.1952
15.6361,42.7471,6.63469
16.0395,43.8422,6.28689
16.6649,45.3781,6.43887
17.5106,46.5397,6.17552
17.6461,45.8225,5.93935
16.3212,43.1837,5.82837
17.1749,42.4879,5.23052
19.4366,44.4591,5.16156
22.0273,48.0761,5.11681
24.967,49.2892,4.19652
24.8204,47.9472,4.08864
24.6254,46.9982,4.10787
24.6581,45.2109,3.69357
22.5069,44.3421,4.14181
18.825,43.7235,5.5716
14.7699,42.8539,6.97674
12.7044,42.9091,8.61938
11.8455,43.6405,10.4261
11.452,45.6199,11.1246
11.9918,48.2324,11.7378
11.9093,50.3274,12.7746
11.0185,49.2727,13.4208
10.1447,48.5914,14.4418
9.58648,49.0799,15.6321
9.59803,47.7792,14.6214
10.3212,48.1927,13.4442
12.7441,52.8912,13.4616
16.1446,61.4838,17.3111
19.7292,71.7436,20.3883
24.7888,85.7263,18.5979
29.7113,103.974,21.3465
35.1584,125.276,27.4516
46.386,158.491,34.1303
65.6733,216.553,44.2736
85.5434,288.295,58.4599
101.657,354.555,74.7866
114.289,404.801,86.7376
121.687,436.024,95.803
121.831,450.546,104.112
115.723,442.616,105.298
110.008,438.233,107.615
106.632,429.148,106.619
102.571,396.73,96.2313
93.0982,358.659,85.7062
83.9043,331.858,82.2432
70.9447,300.178,78.8182
47.4071,230.943,70.0093
22.7313,144.6,47.8944
4.88332,63.9077,15.783
0.607875,8.46315,7.00428
18.5641,11.1976,1.37497
77.1849,119.822,4.40541
195.372,385.417,30.3377
376.558,867.131,98.9004
603.288,1547.43,214.85
843.371,2275.16,345.133
1126.38,3157.74,511.891
1519.88,4481.98,782.204
1934.23,5871.95,1167.01
2276.13,7072.89,1429.33
2583.93,8389.07,1637.75
2829.31,9631.46,1997.31
3049.84,10786.9,2341.66
3278.68,11865.4,2639.22
3402.86,12476.9,2819.17
3336,12616.8,2937.05
3090.26,12241.2,3000.47
2779.56,11493.6,2943.24
2496.38,10745.2,2907.2
2207.57,9912.24,2825.22
1905.4,9011.16,2630.25
1634.16,8223.51,2509.08
1402.33,7531.03,2412.05
1173.49,6756.85,2281.13
962.514,5966.62,2117.84
783.112,5280.23,1978.73
598.803,4610.38,1863.92
426.245,3902.38,1743.54
267.481,3097.78,1493.68
130.224,2266.5,1193.6
53.9567,1637.95,1059.46
14.9198,1082.55,853.036
0.0669086,539.156,552.752
19.8515,184.574,327.247
70.7389,20.216,165.863
155.483,26.3658,54.2746
278.746,245.111,0.899163
433.554,709.677,33.151
609.349,1399.01,169.573
810.783,2283.4,439.919
1050.77,3332.62,684.06
1298.64,4405.11,905.781
1473.09,5276.71,1175.98
1598.42,6024.71,1409.07
1745.04,6840.33,1669.55
1898.93,7785.89,1983.06
2017.29,8723.02,2332.51
2045.84,9181.91,2537.21
1988.65,9079.96,2555.68
1870.27,8635.45,2472.45
1707.97,7978.38,2302.2
1546.48,7254.24,2089.48
1394.99,6526.67,1881.5
1238.26,5841.93,1697.96
1095.36,5236.05,1539.65
982.444,4727.8,1396.47
896.867,4339.84,1282.13
834.914,4034.92,1197.72
776.072,3743.1,1114.42
712.196,3462.59,1037.98
646.793,3188.63,967.41
587.418,2935.92,890.94
538.932,2712.9,820.904
484.074,2458.13,751.888
418.304,2176.83,685.339
362.29,1928.41,617.147
315.914,1706.82,548.477
270.684,1496.81,487.766
233.062,1318.35,433.336
199.756,1156.02,388.749
168.575,1001.25,345.494
149.567,886.463,301.264
140.886,798.782,266.402
130.604,721.936,238.339
120.404,656.566,212.657
116.62,596.854,184.441
118.297,549.942,154.747
122.021,516.731,135.398
123.767,487.58,121.348
125.591,465.895,109.563
121.992,443.983,105.167
112.642,412.298,96.8417
104.922,379.201,85.451
97.5464,353.772,78.5713
93.3976,342.072,75.878
97.4367,341.311,73.0986
105.818,340.905,66.2315
110.718,333.785,58.6752
110.085,323.471,54.1083
104.852,309.8,52.3883
95.2185,286.933,53.0006
81.3613,257.232,50.0377
68.472,226.203,44.2106
55.4745,194.635,41.6121
41.6042,164.425,39.7941
29.2516,136.779,39.0686
18.7218,109.856,37.7047
11.1499,85.2196,35.3431
5.85765,66.0513,33.8867
1.98725,48.6648,31.3536
0.197245,33.0906,29.6405
0.215654,21.1171,27.0443
1.86587,11.4996,22.0073
4.39312,5.21859,18.2292
7.1683,1.74871,15.6048
10.5522,0.185892,13.8327
14.3524,0.166032,11.8095
17.8388,1.32551,9.42082
20.54,3.02311,7.73841
22.5492,5.00553,6.28423
25.4275,7.38895,5.53401
29.0361,11.3873,4.18632
31.7227,16.1979,2.48451
33.2491,19.9043,1.72506
34.6391,23.1866,1.18165
36.4666,27.056,0.590817
38.8225,31.8945,0.188004
39.8827,36.64,0.0189012
38.7302,40.5574,0.0158317
38.503,44.5212,0.251222
36.0337,46.6833,0.996463
30.0744,46.6133,2.19794
24.8988,47.7595,4.03438
19.63,51.1429,7.5845
16.7381,58.5247,12.5472
18.5004,69.7935,16.5483
17.4632,73.3331,19.6968
11.5751,65.974,22.5808
6.3719,57.4576,25.2773
3.04022,48.0045,26.9444
0.856562,36.9525,27.1911
0.00251712,26.2663,26.0116
0.949507,16.1233,24.248
3.39458,8.76137,22.8443
7.7267,4.46054,23.3556
12.7371,2.00389,25.5557
17.7338,0.6938,26.1538
23.2713,0.13353,26.9646
28.4433,0.000458959,28.6049
33.3121,0.105078,29.5472
35.9938,0.222309,30.3478
33.7539,0.0649341,30.2399
29.1497,0.014209,30.6674
27.0224,0.109032,31.7176
27.4901,0.108187,32.4258
29.2596,0.0719251,32.8169
31.2112,0.0328825,33.5606
33.1869,0.00161782,33.8334
34.1362,0.0131807,33.2389
34.3981,0.0716961,31.5387
34.8888,0.242609,29.2002
33.2699,0.351163,26.4577
29.2909,0.208822,23.7548
25.6471,0.0940285,22.7692
21.8712,0.0322657,20.7204
16.9367,0.00129238,16.7837
12.0159,0.107146,14.002
6.93363,0.81687,12.622
3.23578,2.37454,11.3061
1.27346,3.90366,9.89931
0.240061,5.99718,8.62425
0.0580503,8.14604,6.55171
0.798822,10.5895,4.89844
1.80214,13.42,5.07824
3.74008,18.4495,5.38576
9.42251,29.0187,5.00273
19.6092,43.65,4.59071
30.502,55.6273,3.56823
40.9884,60.6068,1.84342
49.423,62.503,0.752941
57.3281,62.7551,0.13675
63.3994,59.7262,0.0464994
65.3079,53.5218,0.888315
70.7256,50.0515,2.32928
76.6843,46.5833,3.79547
76.7132,39.2504,6.02209
75.4896,32.9293,8.41235
73.5879,28.9136,10.2049
70.7323,25.9867,10.949
68.6195,23.4637,12.0004
68.8731,20.8866,13.8191
71.9406,18.1753,17.1545
77.3431,17.0751,22.87
84.0416,17.7963,26.1475
92.7534,19.8695,26.0166
101.942,23.2095,26.819
108.158,25.9239,27.7416
112.025,26.9938,27.8504
114.437,27.9555,28.3314
118.99,30.1742,28.6771
124.599,32.7736,28.107
127.527,35.3253,27.8777
128.304,37.4562,28.4833
130.613,39.8018,27.939
132.976,42.5544,25.0073
134.434,43.4562,24.0321
136.461,45.699,24.3376
137.426,48.9855,22.8382
135.459,48.1924,21.1255
130.486,47.7519,20.0617
128.533,49.285,19.0055
125.649,49.1706,17.562
119.52,47.8216,16.4994
114.654,47.4757,15.189
111.209,49.402,11.9515
106.208,51.3443,9.28754
100.412,54.2773,7.18907
97.1667,57.2062,5.29149
92.6224,56.7377,4.23982
85.1831,55.5059,3.16275
76.8379,52.187,2.40256
69.7882,49.3548,1.94131
65.1809,49.315,1.36715
59.8904,48.3387,0.737005
53.3757,46.0089,0.356719
47.2888,43.767,0.0938975
43.4983,44.4227,0.0176716
41.8205,48.2696,0.274179
38.0396,51.1765,0.833002
35.6186,53.2181,1.7623
35.2591,55.0521,2.2351
35.4103,58.5831,2.89783
36.209,64.448,4.15529
33.7934,66.6449,5.71086
29.1122,66.0449,7.85241
24.3559,64.3809,9.5362
20.28,62.5727,11.8212
17.7688,63.5504,14.2374
15.8464,65.3997,16.668
14.0533,66.6499,19.7245
12.2432,67.5619,22.6522
10.4951,68.1469,25.9858
9.28205,70.6386,28.996
7.76445,72.1043,33.321
6.17,72.8249,37.8378
5.06854,75.8911,40.9642
3.84749,77.4785,46.3104
2.64122,80.5228,53.4597
2.2666,86.6579,59.0371
2.48408,92.2847,62.5759
2.49347,96.7908,66.779
2.22321,98.246,70.1383
2.38221,99.8429,70.0778
3.00927,105.331,72.6305
4.08918,113.188,76.3546
6.74956,125.982,75.6939
10.0531,139.206,75.7473
10.5438,144.534,77.6701
8.43707,138.487,78.9491
5.73371,127.554,79.433
3.62995,116.922,77.6849
2.14179,105.113,77.3678
1.13846,98.415,79.8975
0.63292,93.9533,81.4742
0.178971,86.316,82.6061
0.00201797,78.192,79.2483
0.0214577,74.2709,76.5843
0.120303,70.883,77.1633
0.323831,65.2016,74.2859
0.542089,61.0833,71.5578
0.408916,62.3381,71.7465
0.13163,66.8435,72.9663
0.0225577,68.7174,72.148
0.00278736,68.131,69.284
0.0193613,68.4028,71.3596
0.0872401,68.7455,74.2723
0.0889338,68.2979,73.0154
0.0268015,67.4807,70.7156
0.0195315,64.4118,67.6932
0.0153515,61.4471,65.0513
0.0118264,59.0376,62.8433
0.0388596,55.0278,59.7542
0.162544,51.9013,58.9234
0.331675,51.4419,59.5918
0.234693,51.4242,59.0992
0.0792991,50.9704,56.793
0.0252751,48.2509,51.0637
0.0175582,44.9579,46.9608
0.00103364,43.9009,44.6491
0.0512891,44.6753,42.1756
0.419166,47.217,39.2259
1.50629,49.4565,34.0689
2.22198,47.5432,28.3418
1.15051,41.2889,27.3237
0.0953149,34.8449,30.2539
0.0314162,30.257,31.5712
0.115359,27.7072,30.6175
0.262606,25.2788,29.0624
0.454847,21.2326,26.9624
0.812243,16.3641,24.8473
1.36501,12.1758,22.0521
1.78477,9.72104,19.2955
2.1653,7.6862,17.5449
2.09299,5.47944,13.6079
1.90644,3.90716,10.6226
2.25559,2.61539,10.3055
2.90017,1.66956,9.57979
3.29385,1.42061,8.84231
3.57492,1.12211,7.9825
4.00372,0.52776,7.10016
4.36228,0.195649,6.5205
4.49761,0.0692656,5.45831
4.26997,0.0119562,4.49283
4.19095,0.00252631,3.67193
3.94283,0.0220699,2.94891
3.29811,0.0279068,2.61056
3.01605,0.00911824,2.45583
3.03485,0.021413,2.13505
3.04581,0.127162,1.7931
3.41815,0.403315,1.40129
4.24557,0.970136,1.05114
4.55367,1.53493,0.866079
4.03585,1.84433,0.594553
3.99436,2.02876,0.416247
4.22303,2.56979,0.28411
4.26294,3.02682,0.185853
4.09467,3.10839,0.125492
4.54977,3.58601,0.0931602
5.5865,3.99817,0.0997174
5.69351,3.94392,0.147259
5.71644,4.06102,0.179398
6.15837,4.78809,0.0862514
7.03853,5.65426,0.0566181
7.44767,5.96687,0.0453939
7.26216,6.25458,0.0270217
6.85662,6.10845,0.0374469
6.19462,5.70896,0.027253
6.0182,5.57472,0.011569
6.24477,5.50648,0.0161442
6.41236,6.28775,0.0199043
6.17747,6.66752,0.00899047
6.04709,6.98007,0.149044
6.59674,8.25159,0.162914
